21,349,518
32,328,518
45,359,518
56,330,518
68,354,518
79,354,518
92,342,518
103,370,518
115,346,518
126,377,518
139,366,518
150,367,518
162,391,518
175,372,518
186,413,518
198,408,518
209,426,518
222,449,518
233,431,518
245,458,518
257,418,518
269,400,518
281,367,518
292,313,518
305,320,518
316,281,518
328,300,518
339,297,518
352,284,518
363,312,518
375,281,518
388,311,518
399,299,518
411,294,518
422,315,518
435,284,518
446,316,518
458,300,518
471,295,518
485,317,518
498,297,518
512,292,518
525,321,518
538,303,518
552,294,518
566,323,518
579,309,518
592,297,518
606,326,518
620,318,518
633,301,518
647,328,518
660,324,518
674,303,518
688,326,518
701,321,518
714,299,518
728,318,518
742,329,518
755,306,518
769,322,518
782,333,518
795,302,518
809,324,518
823,336,518
836,311,518
849,314,518
863,334,518
877,303,518
890,308,518
904,322,518
917,314,518
930,315,518
945,340,518
958,310,518
971,320,518
985,340,518
998,314,518
1012,309,518
1027,328,518
1041,328,518
1055,342,518
1070,289,518
1085,301,518
1099,324,518
1114,316,518
1128,346,518
1143,361,518
1158,345,518
1172,340,518
1186,366,518
1201,372,518
1216,344,518
1230,364,518
1245,385,518
1259,376,518
1274,368,518
1289,400,518
1303,425,518
1317,418,518
1332,420,518
1347,440,518
1361,416,518
1376,359,518
1390,331,518
1404,327,518
1420,302,518
1434,283,518
1448,302,518
1463,318,518
1478,307,518
1492,295,518
1507,321,518
1521,325,518
1536,301,518
1551,313,518
1565,335,518
1580,322,518
1594,304,518
1609,324,518
1624,337,518
1638,314,518
1652,305,518
1667,328,518
1682,328,518
1696,303,518
1711,308,518
1725,329,518
1740,324,518
1755,303,518
1769,317,518
1783,336,518
1798,316,518
1813,311,518
1827,332,518
1842,332,518
1856,310,518
1870,311,518
1886,332,518
1900,326,518
1914,308,518
1929,324,518
1944,343,518
1958,325,518
1973,311,518
1987,335,518
2001,340,518
2017,321,518
2031,317,518
2045,342,518
2060,329,518
2075,307,518
2089,323,518
2104,340,518
2118,365,518
2132,288,518
2148,291,518
2162,340,518
2177,319,518
2191,338,518
2206,360,518
2221,353,518
2235,333,518
2249,351,518
2264,373,518
2279,356,518
2293,350,518
2308,370,518
2322,387,518
2336,371,518
2352,384,518
2366,422,518
2380,430,518
2395,424,518
2410,438,518
2424,445,518
2439,394,518
2453,339,518
2467,331,518
2483,321,518
2497,291,518
2511,288,518
2526,310,518
2541,311,518
2555,285,518
2570,298,518
2584,316,518
2598,301,518
2614,286,518
2628,301,518
2642,312,518
2657,289,518
2672,287,518
2686,310,518
2701,308,518
2715,287,518
2729,296,518
2745,320,518
2759,306,518
2774,288,518
2788,311,518
2802,323,518
2818,301,518
2832,302,518
2846,324,518
2861,322,518
2876,304,518
2890,310,518
2905,328,518
2919,315,518
2933,301,518
2949,322,518
2963,331,518
2977,311,518
2992,304,518
3007,326,518
3021,330,518
3036,308,518
3050,315,518
3064,340,518
3080,328,518
3094,316,518
3108,332,518
3123,347,518
3138,323,518
3152,316,518
3167,334,518
3181,339,518
3195,311,518
3211,345,518
3225,336,518
3239,290,518
3254,295,518
3268,334,518
3283,363,518
3298,344,518
3312,338,518
3326,364,518
3342,366,518
3356,350,518
3371,353,518
3385,378,518
3399,374,518
3415,361,518
3429,387,518
3443,413,518
3458,411,518
3473,418,518
3487,453,518
3502,465,518
3516,431,518
3530,401,518
3546,383,518
3560,336,518
3574,292,518
3589,293,518
3604,305,518
3618,286,518
3633,275,518
3647,300,518
3661,308,518
3677,291,518
3691,288,518
3705,316,518
3720,306,518
3734,288,518
3749,305,518
3764,321,518
3778,305,518
3792,296,518
3808,315,518
3822,322,518
3836,299,518
3851,298,518
3865,323,518
3880,319,518
3895,299,518
3909,310,518
3923,329,518
3939,311,518
3953,301,518
3968,324,518
3982,335,518
3996,310,518
4012,306,518
4026,335,518
4040,331,518
4055,309,518
4070,319,518
4084,339,518
4099,324,518
4113,312,518
4127,328,518
4143,339,518
4157,317,518
4171,311,518
4186,342,518
4200,343,518
4215,324,518
4230,327,518
4244,350,518
4258,333,518
4274,315,518
4288,330,518
4302,342,518
4317,325,518
4331,354,518
4346,313,518
4361,290,518
4375,306,518
4389,332,518
4405,357,518
4419,347,518
4433,333,518
4448,351,518
4462,369,518
4477,355,518
4492,351,518
4506,385,518
4520,391,518
4536,370,518
4550,391,518
4564,431,518
4579,438,518
4593,434,518
4609,466,518
4623,477,518
4637,428,518
4652,373,518
4666,351,518
4681,322,518
4696,283,518
4710,284,518
4724,310,518
4740,303,518
4754,291,518
4768,303,518
4783,315,518
4797,294,518
4812,287,518
4827,317,518
4841,320,518
4855,299,518
4871,295,518
4885,319,518
4899,313,518
4914,291,518
4928,306,518
4943,322,518
4958,304,518
4972,293,518
4986,319,518
5002,323,518
5016,303,518
5030,306,518
5045,330,518
5059,320,518
5074,301,518
5089,312,518
5103,331,518
5117,313,518
5132,297,518
5147,320,518
5161,331,518
5176,307,518
5190,306,518
5206,329,518
5220,327,518
5234,308,518
5249,320,518
5263,341,518
5278,325,518
5293,312,518
5307,334,518
5321,341,518
5337,325,518
5351,325,518
5365,352,518
5380,340,518
5394,323,518
5409,327,518
5424,344,518
5438,328,518
5452,314,518
5468,386,518
5482,320,518
5496,261,518
5511,308,518
5525,352,518
5540,360,518
5555,338,518
5569,349,518
5583,371,518
5598,364,518
5613,350,518
5627,374,518
5642,391,518
5656,373,518
5671,376,518
5686,415,518
5700,431,518
5714,420,518
5729,442,518
5744,476,518
5758,471,518
5773,433,518
5787,406,518
5803,371,518
5817,310,518
5831,281,518
5846,300,518
5860,295,518
5875,277,518
5890,285,518
5904,308,518
5918,298,518
5934,275,518
5948,298,518
5962,309,518
5977,292,518
5991,284,518
6006,308,518
6021,309,518
6035,287,518
6049,291,518
6064,313,518
6079,302,518
6093,283,518
6108,301,518
6122,319,518
6137,302,518
6152,292,518
6166,318,518
6180,319,518
6195,295,518
6210,301,518
6224,327,518
6239,320,518
6253,297,518
6268,314,518
6283,328,518
6297,312,518
6311,303,518
6326,324,518
6341,335,518
6355,312,518
6370,316,518
6384,334,518
6400,325,518
6414,301,518
6428,316,518
6443,336,518
6457,321,518
6472,312,518
6487,336,518
6501,340,518
6515,326,518
6530,319,518
6545,343,518
6559,334,518
6574,313,518
6588,371,518
6603,337,518
6618,271,518
6632,297,518
6646,342,518
6661,367,518
6676,345,518
6690,340,518
6705,373,518
6719,371,518
6734,347,518
6749,327,518
6763,405,518
6777,375,518
6792,362,518
6807,391,518
6821,412,518
6836,417,518
6850,420,518
6865,478,518
6880,471,518
6894,440,518
6908,395,518
6923,364,518
6938,323,518
6952,282,518
6967,295,518
6981,309,518
6995,296,518
7011,286,518
7025,324,518
7040,320,518
7054,298,518
7069,304,518
7084,320,518
7098,314,518
7112,298,518
7127,312,518
7142,317,518
7156,299,518
7171,295,518
7185,320,518
7200,317,518
7215,299,518
7229,300,518
7243,326,518
7258,313,518
7273,297,518
7287,316,518
7302,329,518
7316,317,518
7331,310,518
7346,332,518
7360,337,518
7374,311,518
7389,317,518
7404,345,518
7418,337,518
7433,319,518
7447,333,518
7461,349,518
7477,326,518
7491,327,518
7505,341,518
7520,346,518
7535,324,518
7549,321,518
7564,389,518
7578,318,518
7592,237,518
7608,329,518
7622,352,518
7636,349,518
7651,336,518
7666,355,518
7681,374,518
7695,349,518
7709,353,518
7724,377,518
7739,376,518
7753,365,518
7768,380,518
7782,405,518
7797,402,518
7812,404,518
7826,444,518
7840,464,518
7855,439,518
7870,421,518
7884,400,518
7899,353,518
7913,292,518
7927,286,518
7943,299,518
7957,285,518
7971,275,518
7986,288,518
8001,314,518
8015,290,518
8030,282,518
8044,309,518
8058,313,518
8074,290,518
8088,292,518
8102,316,518
8117,302,518
8132,289,518
8146,306,518
8161,322,518
8175,295,518
8189,297,518
8205,318,518
8219,320,518
8233,292,518
8248,305,518
8263,327,518
8278,314,518
8292,300,518
8306,318,518
8321,326,518
8336,310,518
8350,300,518
8365,327,518
8379,330,518
8393,304,518
8409,312,518
8423,338,518
8437,327,518
8452,314,518
8467,331,518
8481,346,518
8496,326,518
8510,312,518
8524,328,518
8540,331,518
8554,307,518
8568,335,518
8583,346,518
8598,277,518
8612,276,518
8627,321,518
8641,355,518
8655,340,518
8671,332,518
8685,357,518
8699,361,518
8714,341,518
8729,350,518
8743,375,518
8758,371,518
8772,356,518
8786,382,518
8802,410,518
8816,407,518
8830,412,518
8845,449,518
8859,461,518
8875,429,518
8889,396,518
8903,374,518
8918,326,518
8933,279,518
8947,282,518
8962,302,518
8976,285,518
8990,280,518
9006,301,518
9020,315,518
9034,293,518
9049,291,518
9064,316,518
9078,313,518
9093,288,518
9107,301,518
9121,316,518
9137,302,518
9151,286,518
9165,308,518
9180,321,518
9195,299,518
9209,295,518
9224,324,518
9238,321,518
9252,299,518
9268,311,518
9282,335,518
9296,320,518
9311,306,518
9325,322,518
9340,333,518
9355,312,518
9369,310,518
9383,335,518
9399,334,518
9413,309,518
9427,320,518
9442,339,518
9456,331,518
9472,311,518
9486,329,518
9500,337,518
9515,323,518
9530,314,518
9544,337,518
9559,334,518
9573,314,518
9587,313,518
9603,330,518
9617,319,518
9631,305,518
9646,366,518
9661,299,518
9675,249,518
9690,294,518
9704,335,518
9718,349,518
9734,328,518
9748,335,518
9762,363,518
9777,353,518
9791,336,518
9806,357,518
9821,381,518
9835,368,518
9849,365,518
9865,400,518
9879,421,518
9893,414,518
9908,431,518
9922,464,518
9937,459,518
9952,414,518
9966,381,518
9980,350,518
9996,301,518
10010,272,518
10025,287,518
10041,297,518
10056,286,518
10073,270,518
10088,277,518
10103,303,518
10119,308,518
10135,291,518
10150,282,518
10166,300,518
10181,313,518
10198,308,518
10213,284,518
10228,290,518
10244,314,518
10260,321,518
10275,306,518
10291,293,518
10306,306,518
10321,322,518
10338,318,518
10353,300,518
10369,301,518
10384,322,518
10400,333,518
10416,319,518
10431,304,518
10446,316,518
10463,335,518
10478,330,518
10493,311,518
10509,309,518
10525,328,518
10541,340,518
10556,330,518
10571,318,518
10587,326,518
10603,340,518
10618,344,518
10634,317,518
10649,310,518
10665,326,518
10681,340,518
10696,373,518
10712,300,518
10728,242,518
10743,324,518
10759,348,518
10774,344,518
10789,333,518
10806,343,518
10821,370,518
10836,361,518
10852,346,518
10868,355,518
10884,381,518
10899,400,518
10914,387,518
10931,393,518
10946,419,518
10961,456,518
10977,465,518
10993,438,518
11009,417,518
11024,380,518
11039,334,518
11055,288,518
11071,264,518
11086,269,518
11102,294,518
11117,293,518
11133,278,518
11149,273,518
11164,291,518
11180,303,518
11196,290,518
11211,273,518
11227,282,518
11242,306,518
11258,306,518
11274,286,518
11289,283,518
11304,302,518
11320,320,518
11336,313,518
11352,293,518
11367,296,518
11382,319,518
11399,323,518
11414,309,518
11429,301,518
11445,317,518
11461,329,518
11476,325,518
11492,306,518
11507,310,518
11524,329,518
11539,337,518
11554,318,518
11570,314,518
11585,325,518
11601,349,518
11617,344,518
11632,317,518
11648,318,518
11664,330,518
11679,340,518
11695,328,518
11710,326,518
11726,357,518
11742,304,518
11757,325,518
11772,323,518
11788,338,518
11804,355,518
11820,372,518
11835,358,518
11850,344,518
11867,350,518
11882,381,518
11897,388,518
11913,374,518
11929,374,518
11944,402,518
11960,430,518
11975,437,518
11992,436,518
12007,446,518
12022,450,518
12038,408,518
12053,336,518
12069,291,518
12085,287,518
12100,301,518
12115,295,518
12132,277,518
12147,284,518
12163,305,518
12178,312,518
12194,297,518
12210,284,518
12225,297,518
12240,314,518
12257,308,518
12272,286,518
12288,286,518
12303,307,518
12318,316,518
12335,302,518
12350,288,518
12365,297,518
12381,320,518
12397,319,518
12412,299,518
12428,292,518
12443,316,518
12460,326,518
12475,319,518
12490,305,518
12506,313,518
12522,334,518
12537,334,518
12553,315,518
12568,309,518
12583,324,518
12600,341,518
12615,334,518
12631,316,518
12646,321,518
12662,340,518
12678,348,518
12693,324,518
12708,308,518
12725,323,518
12740,341,518
12755,376,518
12771,287,518
12786,263,518
12803,331,518
12818,353,518
12833,342,518
12849,332,518
12865,344,518
12880,366,518
12896,361,518
12911,346,518
12928,349,518
12943,373,518
12958,390,518
12974,384,518
12990,384,518
13005,412,518
13021,450,518
13036,461,518
13051,438,518
13068,403,518
13083,369,518
13099,336,518
13114,299,518
13130,270,518
13146,275,518
13161,301,518
13176,307,518
13193,288,518
13208,279,518
13223,294,518
13239,310,518
13255,306,518
13271,288,518
13286,292,518
13301,310,518
13317,314,518
13333,293,518
13348,282,518
13364,295,518
13379,313,518
13395,309,518
13411,290,518
13426,292,518
13442,316,518
13458,326,518
13473,311,518
13489,297,518
13504,309,518
13520,328,518
13536,325,518
13551,305,518
13566,303,518
13582,322,518
13598,332,518
13614,320,518
13629,306,518
13644,317,518
13661,339,518
13676,340,518
13691,317,518
13707,314,518
13723,332,518
13739,346,518
13754,335,518
13769,310,518
13785,316,518
13801,336,518
13816,339,518
13832,354,518
13847,283,518
13863,269,518
13879,328,518
13894,335,518
13910,326,518
13926,328,518
13941,354,518
13957,366,518
13972,352,518
13988,349,518
14004,364,518
14019,386,518
14034,389,518
14050,381,518
14066,395,518
14082,434,518
14097,460,518
14112,456,518
14129,444,518
14144,429,518
14159,400,518
14175,342,518
14191,296,518
14206,278,518
14222,296,518
14237,306,518
14254,299,518
14269,288,518
14284,295,518
14300,315,518
14315,318,518
14331,298,518
14347,292,518
14362,307,518
14377,315,518
14394,307,518
14409,283,518
14425,286,518
14440,306,518
14456,313,518
14472,298,518
14487,289,518
14502,303,518
14519,325,518
14534,322,518
14550,300,518
14565,306,518
14580,326,518
14597,332,518
14612,314,518
14627,304,518
14643,313,518
14659,328,518
14674,325,518
14690,309,518
14705,311,518
14722,332,518
14737,339,518
14752,324,518
14768,319,518
14783,328,518
14799,352,518
14815,350,518
14830,324,518
14845,313,518
14862,334,518
14877,344,518
14893,366,518
14908,294,518
14924,264,518
14940,324,518
14955,347,518
14970,342,518
14987,333,518
15002,348,518
15017,367,518
15033,358,518
15048,346,518
15065,355,518
15080,385,518
15095,396,518
15111,392,518
15127,397,518
15142,427,518
15158,465,518
15173,475,518
15190,453,518
15205,430,518
15220,393,518
15236,341,518
15252,292,518
15267,266,518
15283,274,518
15298,294,518
15313,292,518
15330,271,518
15345,272,518
15361,289,518
15376,300,518
15392,287,518
15408,274,518
15423,283,518
15438,302,518
15455,300,518
15470,284,518
15485,279,518
15501,301,518
15517,311,518
15533,300,518
15548,288,518
15563,291,518
15579,316,518
15595,316,518
15610,298,518
15626,291,518
15641,312,518
15657,323,518
15673,317,518
15688,298,518
15704,301,518
15720,322,518
15735,326,518
15751,312,518
15766,302,518
15781,314,518
15798,334,518
15813,326,518
15828,309,518
15844,308,518
15860,333,518
15876,344,518
15891,330,518
15906,318,518
15923,325,518
15938,334,518
15953,332,518
15969,314,518
15985,343,518
16001,320,518
16016,284,518
16031,307,518
16047,321,518
16063,344,518
16078,363,518
16094,368,518
16109,347,518
16125,348,518
16141,369,518
16156,390,518
16172,386,518
16188,380,518
16203,396,518
16219,430,518
16234,454,518
16250,460,518
16266,462,518
16281,483,518
16296,476,518
16312,409,518
16328,327,518
16344,290,518
16359,291,518
16374,292,518
16391,273,518
16406,266,518
16421,279,518
16437,299,518
16453,294,518
16468,275,518
16484,277,518
16499,297,518
16516,303,518
16531,293,518
16546,276,518
16562,286,518
16577,306,518
16593,304,518
16609,288,518
16624,284,518
16640,307,518
16656,319,518
16671,302,518
16687,287,518
16702,297,518
16718,320,518
16734,320,518
16749,301,518
16764,298,518
16780,314,518
16796,329,518
16812,319,518
16827,304,518
16842,306,518
16859,327,518
16874,331,518
16889,315,518
16905,305,518
16921,318,518
16936,340,518
16952,332,518
16967,314,518
16984,318,518
16999,338,518
17014,345,518
17030,325,518
17045,311,518
17061,323,518
17077,364,518
17092,343,518
17107,262,518
17124,284,518
17139,341,518
17155,371,518
17170,353,518
17186,341,518
17202,356,518
17217,379,518
17232,383,518
17249,368,518
17264,375,518
17280,403,518
17295,429,518
17310,430,518
17327,431,518
17342,459,518
17357,499,518
17373,504,518
17389,464,518
17404,401,518
17420,353,518
17435,319,518
17452,292,518
17467,270,518
17482,271,518
17498,297,518
17514,304,518
17529,289,518
17545,279,518
17560,296,518
17575,313,518
17592,305,518
17607,283,518
17623,282,518
17638,299,518
17654,307,518
17670,292,518
17685,277,518
17700,290,518
17717,310,518
17732,311,518
17747,289,518
17763,288,518
17778,311,518
17795,320,518
17810,306,518
17825,289,518
17841,301,518
17857,323,518
17872,320,518
17888,303,518
17903,300,518
17920,317,518
17935,327,518
17950,320,518
17966,304,518
17982,309,518
17997,334,518
18013,334,518
18028,314,518
18043,313,518
18060,331,518
18075,342,518
18091,335,518
18106,310,518
18122,310,518
18138,328,518
18153,344,518
18168,356,518
18185,267,518
18200,252,518
18215,328,518
18231,352,518
18247,335,518
18263,338,518
18278,368,518
18293,378,518
18309,368,518
18325,357,518
18340,372,518
18356,400,518
18371,406,518
18387,401,518
18403,419,518
18418,458,518
18434,489,518
18450,483,518
18465,453,518
18481,414,518
18496,363,518
18512,313,518
18528,265,518
18543,253,518
18558,274,518
18574,288,518
18590,283,518
18606,267,518
18621,271,518
18636,293,518
18653,296,518
18668,280,518
18683,270,518
18699,283,518
18715,297,518
18731,290,518
18746,277,518
18761,282,518
18777,304,518
18793,307,518
18808,288,518
18824,277,518
18839,291,518
18855,309,518
18871,306,518
18886,290,518
18902,293,518
18918,311,518
18933,324,518
18949,310,518
18964,299,518
18980,309,518
18996,333,518
19011,333,518
19026,320,518
19042,320,518
19058,334,518
19074,346,518
19089,327,518
19104,310,518
19121,317,518
19136,342,518
19151,395,518
19167,288,518
19183,267,518
19198,325,518
19214,357,518
19229,350,518
19246,337,518
19261,343,518
19276,369,518
19292,378,518
19307,366,518
19323,363,518
19339,382,518
19354,406,518
19369,413,518
19386,411,518
19401,430,518
19417,467,518
19432,480,518
19448,450,518
19464,391,518
19479,345,518
19494,320,518
19511,299,518
19526,276,518
19542,278,518
19557,301,518
19572,309,518
19589,299,518
19604,286,518
19619,294,518
19635,314,518
19651,313,518
19666,296,518
19682,292,518
19697,306,518
19714,318,518
19729,307,518
19744,290,518
19760,294,518
19775,313,518
19791,318,518
19807,298,518
19822,288,518
19837,307,518
19854,325,518
19869,318,518
19885,300,518
19900,306,518
19916,327,518
19932,332,518
19947,315,518
19962,305,518
19979,324,518
19994,344,518
20009,336,518
20025,321,518
20040,313,518
20057,332,518
20072,338,518
20087,333,518
20103,336,518
20119,283,518
20134,299,518
20150,333,518
20165,336,518
20182,331,518
20197,355,518
20212,369,518
20228,357,518
20244,345,518
20259,357,518
20275,383,518
20290,388,518
20305,379,518
20322,393,518
20337,424,518
20353,457,518
20368,463,518
20384,452,518
20400,436,518
20415,406,518
20430,348,518
20447,287,518
20462,264,518
20477,274,518
20493,296,518
20509,289,518
20525,274,518
20540,282,518
20555,306,518
20571,310,518
20587,282,518
20602,269,518
20618,280,518
20633,308,518
20649,299,518
20665,268,518
20680,269,518
20696,288,518
20712,299,518
20727,290,518
20743,288,518
20758,293,518
20773,314,518
20790,310,518
20805,310,518
20820,290,518
20836,331,518
20852,353,518
20868,350,518
20883,328,518
20898,348,518
20915,374,518
20930,389,518
20945,346,518
20961,344,518
20977,343,518
20993,350,518
21008,347,518
21023,327,518
21039,379,518
21055,332,518
21070,316,518
21086,334,518
21101,320,518
21117,335,518
21133,354,518
21148,344,518
21164,322,518
21180,326,518
21195,349,518
21211,359,518
21226,349,518
21242,347,518
21258,369,518
21273,418,518
21288,441,518
21304,431,518
21320,435,518
21336,439,518
21351,406,518
21366,334,518
21383,278,518
21398,274,518
21413,289,518
21429,292,518
21445,269,518
21460,266,518
21476,294,518
21491,307,518
21508,294,518
21523,273,518
21538,285,518
21554,308,518
21569,307,518
21585,284,518
21601,276,518
21616,293,518
21632,308,518
21648,300,518
21663,281,518
21679,290,518
21694,316,518
21710,321,518
21726,302,518
21741,292,518
21756,309,518
21772,328,518
21788,326,518
21804,311,518
21819,311,518
21834,334,518
21851,335,518
21866,315,518
21881,299,518
21897,314,518
21913,382,518
21928,314,518
21944,249,518
21959,301,518
21976,337,518
21991,352,518
22006,338,518
22022,320,518
22037,337,518
22053,364,518
22069,368,518
22084,352,518
22099,353,518
22116,385,518
22131,411,518
22147,412,518
22162,411,518
22178,429,518
22194,461,518
22209,448,518
22224,384,518
22241,322,518
22256,302,518
22272,303,518
22287,289,518
22302,269,518
22319,276,518
22334,298,518
22349,312,518
22365,295,518
22381,286,518
22396,301,518
22412,323,518
22427,314,518
22444,292,518
22459,295,518
22474,316,518
22490,325,518
22506,303,518
22521,293,518
22537,308,518
22552,328,518
22567,321,518
22584,305,518
22599,302,518
22615,323,518
22630,335,518
22646,322,518
22662,305,518
22677,315,518
22692,342,518
22709,345,518
22724,321,518
22739,319,518
22755,330,518
22770,339,518
22787,330,518
22802,312,518
22817,361,518
22833,314,518
22849,300,518
22864,319,518
22880,323,518
22895,344,518
22912,358,518
22927,351,518
22942,332,518
22958,339,518
22974,365,518
22989,374,518
23005,362,518
23020,358,518
23035,386,518
23052,421,518
23067,434,518
23083,432,518
23098,443,518
23114,455,518
23130,416,518
23145,341,518
23160,290,518
23177,285,518
23192,301,518
23207,299,518
23223,276,518
23239,279,518
23255,301,518
23270,315,518
23285,304,518
23301,285,518
23317,293,518
23332,314,518
23348,315,518
23363,295,518
23379,289,518
23395,308,518
23410,322,518
23426,312,518
23442,293,518
23457,297,518
23473,321,518
23488,326,518
23504,305,518
23520,298,518
23535,312,518
23550,330,518
23566,323,518
23582,304,518
23598,305,518
23613,328,518
23628,337,518
23645,321,518
23660,310,518
23675,320,518
23691,340,518
23707,328,518
23723,308,518
23738,312,518
23753,354,518
23769,351,518
23785,295,518
23800,300,518
23816,326,518
23831,361,518
23847,356,518
23863,336,518
23878,333,518
23894,356,518
23910,370,518
23925,363,518
23941,348,518
23956,365,518
23972,398,518
23988,412,518
24003,410,518
24018,425,518
24034,459,518
24050,478,518
24066,435,518
24081,357,518
24096,309,518
24113,303,518
24128,290,518
24143,272,518
24159,265,518
24175,283,518
24190,303,518
24206,299,518
24221,281,518
24238,286,518
24253,305,518
24268,310,518
24284,290,518
24299,277,518
24315,289,518
24331,309,518
24346,305,518
24361,281,518
24378,283,518
24393,304,518
24409,317,518
24424,303,518
24440,289,518
24456,301,518
24471,323,518
24486,324,518
24503,301,518
24518,302,518
24534,319,518
24549,334,518
24564,319,518
24581,302,518
24596,309,518
24611,332,518
24627,330,518
24643,317,518
24658,314,518
24674,328,518
24689,346,518
24706,335,518
24721,308,518
24736,311,518
24752,334,518
24767,372,518
24783,325,518
24799,274,518
24814,314,518
24829,347,518
24846,350,518
24861,331,518
24877,333,518
24892,362,518
24908,372,518
24924,356,518
24939,348,518
24954,369,518
24971,396,518
24986,404,518
25001,397,518
25017,413,518
25032,459,518
25049,486,518
25064,472,518
25079,425,518
25095,374,518
25111,344,518
25126,307,518
25142,271,518
25157,267,518
25174,290,518
25189,307,518
25204,298,518
25220,281,518
25236,286,518
25251,311,518
25267,311,518
25282,293,518
25297,282,518
25314,301,518
25329,317,518
25345,305,518
25360,287,518
25376,291,518
25392,313,518
25407,319,518
25422,302,518
25439,292,518
25454,307,518
25469,335,518
25485,328,518
25501,303,518
25517,301,518
25532,322,518
25547,331,518
25563,314,518
25579,298,518
25594,314,518
25610,338,518
25625,333,518
25641,314,518
25657,312,518
25672,336,518
25688,347,518
25704,331,518
25719,316,518
25735,330,518
25750,349,518
25765,348,518
25782,318,518
25797,312,518
25812,326,518
25828,354,518
25844,353,518
25860,288,518
25875,282,518
25890,334,518
25907,354,518
25922,333,518
25937,329,518
25953,351,518
25969,374,518
25985,372,518
26000,358,518
26015,363,518
26031,397,518
26047,411,518
26062,404,518
26078,418,518
26093,451,518
26109,490,518
26125,491,518
26140,451,518
26156,393,518
26172,353,518
26187,313,518
26203,283,518
26218,258,518
26234,268,518
26250,291,518
26265,289,518
26280,272,518
26296,274,518
26312,296,518
26328,312,518
26343,300,518
26358,288,518
26375,300,518
26390,325,518
26405,332,518
26421,321,518
26437,315,518
26452,331,518
26468,322,518
26483,316,518
26500,296,518
26515,291,518
26530,308,518
26546,309,518
26561,283,518
26577,268,518
26593,279,518
26608,302,518
26624,298,518
26640,276,518
26655,279,518
26671,302,518
26686,317,518
26702,303,518
26718,297,518
26733,313,518
26748,331,518
26764,336,518
26780,309,518
26796,314,518
26811,328,518
26826,337,518
26843,323,518
26858,331,518
26873,342,518
26889,303,518
26905,312,518
26920,327,518
26936,344,518
26951,366,518
26968,373,518
26983,364,518
26998,352,518
27014,370,518
27029,395,518
27045,398,518
27061,385,518
27076,395,518
27091,426,518
27108,465,518
27123,471,518
27139,471,518
27154,488,518
27170,485,518
27186,422,518
27201,343,518
27216,292,518
27233,289,518
27248,299,518
27264,291,518
27279,272,518
27294,282,518
27311,309,518
27326,311,518
27341,298,518
27357,282,518
27373,296,518
27388,316,518
27404,310,518
27419,294,518
27436,290,518
27451,312,518
27466,316,518
27482,300,518
27498,286,518
27513,298,518
27529,321,518
27544,316,518
27559,297,518
27576,296,518
27591,315,518
27607,325,518
27622,315,518
27638,298,518
27654,308,518
27669,326,518
27684,324,518
27701,302,518
27716,298,518
27731,314,518
27747,326,518
27762,318,518
27779,302,518
27794,309,518
27809,339,518
27825,342,518
27841,321,518
27856,308,518
27872,323,518
27887,333,518
27904,329,518
27919,311,518
27934,362,518
27950,317,518
27966,270,518
27981,300,518
27997,320,518
28012,345,518
28027,365,518
28044,362,518
28059,343,518
28075,347,518
28090,372,518
28106,382,518
28122,374,518
28137,369,518
28152,393,518
28169,427,518
28184,442,518
28199,440,518
28215,451,518
28231,467,518
28247,446,518
28262,374,518
28277,307,518
28293,287,518
28309,290,518
28324,290,518
28340,274,518
28355,272,518
28371,291,518
28387,305,518
28402,298,518
28418,281,518
28434,284,518
28449,306,518
28465,309,518
28480,289,518
28496,282,518
28512,295,518
28527,315,518
28542,309,518
28558,290,518
28574,290,518
28590,310,518
28605,316,518
28620,301,518
28637,291,518
28652,305,518
28667,326,518
28683,320,518
28699,303,518
28715,305,518
28730,325,518
28745,333,518
28761,320,518
28777,308,518
28792,319,518
28808,338,518
28823,337,518
28839,324,518
28855,317,518
28870,332,518
28886,335,518
28902,321,518
28917,308,518
28933,335,518
28948,347,518
28964,293,518
28980,302,518
28995,315,518
29010,351,518
29026,362,518
29042,356,518
29058,337,518
29073,346,518
29088,373,518
29105,376,518
29120,366,518
29135,364,518
29151,393,518
29167,422,518
29182,431,518
29198,430,518
29213,451,518
29230,472,518
29245,459,518
29260,391,518
29276,326,518
29291,306,518
29307,307,518
29323,294,518
29338,277,518
29353,283,518
29370,302,518
29385,314,518
29401,299,518
29416,285,518
29432,298,518
29448,317,518
29463,311,518
29478,292,518
29495,291,518
29510,311,518
29526,321,518
29541,304,518
29556,292,518
29573,299,518
29588,320,518
29603,323,518
29619,307,518
29635,298,518
29650,313,518
29666,323,518
29681,312,518
29698,297,518
29713,303,518
29728,322,518
29744,324,518
29759,311,518
29775,300,518
29791,319,518
29806,330,518
29821,330,518
29838,305,518
29853,321,518
29869,341,518
29884,353,518
29900,332,518
29916,317,518
29931,331,518
29946,340,518
29963,342,518
29978,341,518
29993,302,518
30009,274,518
30024,320,518
30041,332,518
30056,331,518
30071,356,518
30087,377,518
30103,387,518
30118,365,518
30134,381,518
30149,403,518
30166,410,518
30181,382,518
30196,391,518
30212,416,518
30228,454,518
30243,464,518
30259,472,518
30274,466,518
30289,460,518
30306,413,518
30321,350,518
30337,301,518
30352,283,518
30368,310,518
30384,316,518
30399,302,518
30414,289,518
30431,305,518
30446,325,518
30461,310,518
30477,291,518
30493,285,518
30509,301,518
30524,302,518
30539,277,518
30555,259,518
30571,270,518
30586,284,518
30602,282,518
30617,250,518
30633,259,518
30649,276,518
30664,284,518
30680,267,518
30696,254,518
30711,271,518
30727,298,518
30742,297,518
30757,281,518
30774,281,518
30789,304,518
30804,319,518
30820,305,518
30836,291,518
30852,303,518
30867,324,518
30882,324,518
30899,306,518
30914,310,518
30929,330,518
30945,340,518
30961,330,518
30977,305,518
30992,308,518
31007,334,518
31023,336,518
31039,359,518
31054,277,518
31070,262,518
31085,324,518
31101,346,518
31117,330,518
31132,338,518
31148,362,518
31164,370,518
31179,355,518
31195,349,518
31210,370,518
31226,396,518
31242,401,518
31257,388,518
31272,408,518
31288,452,518
31304,478,518
31320,470,518
31335,447,518
31350,422,518
31367,383,518
31382,323,518
31397,277,518
31413,270,518
31429,289,518
31444,302,518
31460,290,518
31475,276,518
31492,286,518
31507,310,518
31522,311,518
31538,289,518
31553,283,518
31569,301,518
31585,316,518
31600,300,518
31616,283,518
31632,291,518
31647,312,518
31663,316,518
31678,292,518
31694,286,518
31710,305,518
31725,324,518
31740,313,518
31756,292,518
31772,299,518
31788,324,518
31803,327,518
31818,310,518
31835,298,518
31850,318,518
31865,335,518
31881,325,518
31897,304,518
31912,306,518
31928,325,518
31943,336,518
31960,320,518
31975,307,518
31990,316,518
32006,335,518
32021,323,518
32037,303,518
32053,301,518
32068,326,518
32083,384,518
32100,304,518
32115,235,518
32131,306,518
32146,357,518
32162,364,518
32178,348,518
32193,349,518
32208,374,518
32225,390,518
32240,378,518
32256,364,518
32271,377,518
32286,402,518
32303,416,518
32318,412,518
32333,421,518
32349,457,518
32365,488,518
32380,470,518
32396,416,518
32411,367,518
32428,339,518
32443,313,518
32458,286,518
32474,276,518
32490,292,518
32505,314,518
32521,310,518
32536,288,518
32551,289,518
32568,309,518
32583,312,518
32599,293,518
32614,283,518
32630,294,518
32646,314,518
32661,306,518
32676,286,518
32693,286,518
32708,311,518
32723,317,518
32739,302,518
32754,286,518
32771,298,518
32786,318,518
32801,320,518
32817,296,518
32833,298,518
32848,315,518
32864,325,518
32879,316,518
32896,298,518
32911,318,518
32926,340,518
32942,339,518
32958,323,518
32973,308,518
32989,325,518
33004,339,518
33019,333,518
33036,349,518
33051,288,518
33067,297,518
33082,338,518
33098,340,518
33114,328,518
33129,343,518
33144,362,518
33161,353,518
33176,340,518
33191,351,518
33207,374,518
33223,392,518
33239,380,518
33254,384,518
33269,412,518
33285,453,518
33301,463,518
33316,455,518
33332,439,518
33347,415,518
33363,361,518
33379,303,518
33394,271,518
33410,276,518
33426,300,518
33441,299,518
33457,278,518
33472,275,518
33488,294,518
33504,305,518
33519,293,518
33534,277,518
33550,288,518
33566,311,518
33582,310,518
33597,291,518
33612,284,518
33629,305,518
33644,322,518
33659,312,518
33675,290,518
33691,300,518
33707,320,518
33722,324,518
33737,306,518
33753,299,518
33769,315,518
33784,333,518
33800,326,518
33815,303,518
33831,310,518
33847,334,518
33862,340,518
33878,323,518
33894,311,518
33909,325,518
33925,339,518
33940,332,518
33956,311,518
33972,353,518
33987,323,518
34002,273,518
34018,302,518
34034,315,518
34050,342,518
34065,366,518
34080,365,518
34097,347,518
34112,348,518
34127,378,518
34143,391,518
34159,382,518
34174,373,518
34190,395,518
34205,431,518
34222,446,518
34237,442,518
34252,449,518
34268,471,518
34283,452,518
34299,381,518
34315,309,518
34330,288,518
34345,297,518
34362,303,518
34377,288,518
34393,281,518
34408,297,518
34424,311,518
34440,300,518
34455,285,518
34470,286,518
34487,308,518
34502,310,518
34518,291,518
34533,281,518
34548,294,518
34565,313,518
34580,309,518
34595,285,518
34611,288,518
34627,310,518
34642,318,518
34658,305,518
34673,289,518
34690,306,518
34705,329,518
34720,327,518
34736,305,518
34751,300,518
34767,320,518
34783,333,518
34798,318,518
34813,303,518
34830,314,518
34845,340,518
34861,333,518
34876,312,518
34892,300,518
34908,320,518
34923,334,518
34938,361,518
34955,307,518
34970,251,518
34985,313,518
35001,345,518
35016,340,518
35033,332,518
35048,353,518
35063,371,518
35079,365,518
35095,349,518
35110,358,518
35126,384,518
35141,397,518
35158,391,518
35173,399,518
35188,434,518
35204,474,518
35220,476,518
35235,456,518
35251,426,518
35266,389,518
35281,339,518
35298,287,518
35313,261,518
35329,276,518
35344,294,518
35360,291,518
35376,267,518
35391,270,518
35406,293,518
35423,306,518
35438,290,518
35453,273,518
35469,284,518
35485,302,518
35501,303,518
35516,276,518
35531,276,518
35547,296,518
35563,310,518
35578,296,518
35594,278,518
35609,287,518
35625,308,518
35641,312,518
35656,286,518
35672,280,518
35688,301,518
35703,317,518
35719,310,518
35734,285,518
35749,291,518
35766,315,518
35781,327,518
35796,307,518
35812,297,518
35828,313,518
35844,327,518
35859,315,518
35874,290,518
35891,296,518
35906,374,518
35921,307,518
35937,243,518
35953,290,518
35969,336,518
35984,357,518
35999,349,518
36015,339,518
36031,343,518
36046,378,518
36062,397,518
36077,388,518
36093,378,518
36109,399,518
36124,428,518
36140,445,518
36156,438,518
36171,450,518
36187,481,518
36202,482,518
36218,427,518
36234,352,518
36249,317,518
36264,321,518
36280,316,518
36296,294,518
36312,288,518
36327,307,518
36342,321,518
36359,308,518
36374,289,518
36389,298,518
36405,317,518
36421,317,518
36436,301,518
36452,292,518
36467,308,518
36484,324,518
36499,319,518
36514,293,518
36530,301,518
36545,323,518
36561,328,518
36577,306,518
36592,296,518
36608,310,518
36624,328,518
36639,325,518
36655,307,518
36670,303,518
36686,328,518
36702,330,518
36717,310,518
36732,294,518
36748,313,518
36764,386,518
36780,301,518
36795,261,518
36810,303,518
36827,343,518
36842,355,518
36857,340,518
36873,327,518
36889,339,518
36904,368,518
36920,371,518
36935,353,518
36952,351,518
36967,378,518
36982,404,518
36998,407,518
37013,400,518
37029,425,518
37045,452,518
37060,439,518
37075,374,518
37092,318,518
37107,304,518
37123,304,518
37138,290,518
37154,269,518
37170,281,518
37185,308,518
37200,317,518
37217,296,518
37232,283,518
37248,298,518
37263,315,518
37278,307,518
37295,287,518
37310,287,518
37325,306,518
37341,316,518
37357,302,518
37372,290,518
37388,302,518
37403,326,518
37420,313,518
37435,294,518
37450,295,518
37466,316,518
37482,329,518
37497,314,518
37513,300,518
37528,320,518
37543,336,518
37560,337,518
37575,308,518
37591,299,518
37606,321,518
37622,338,518
37638,350,518
37653,270,518
37668,286,518
37685,332,518
37700,352,518
37715,333,518
37731,325,518
37746,343,518
37763,364,518
37778,355,518
37793,342,518
37809,350,518
37825,381,518
37840,388,518
37856,380,518
37871,389,518
37888,417,518
37903,446,518
37918,443,518
37934,404,518
37950,359,518
37965,335,518
37981,310,518
37996,282,518
38011,264,518
38028,286,518
38043,301,518
38059,298,518
38074,287,518
38090,288,518
38106,311,518
38121,321,518
38136,302,518
38153,292,518
38168,303,518
38183,325,518
38199,319,518
38215,289,518
38231,297,518
38246,320,518
38261,341,518
38277,339,518
38293,320,518
38308,323,518
38324,350,518
38339,352,518
38355,335,518
38371,345,518
38386,366,518
38402,388,518
38418,371,518
38433,355,518
38449,344,518
38464,366,518
38480,359,518
38496,316,518
38511,306,518
38526,319,518
38542,390,518
38558,318,518
38574,274,518
38589,326,518
38604,348,518
38621,361,518
38636,343,518
38651,328,518
38667,340,518
38683,362,518
38699,355,518
38714,327,518
38729,330,518
38745,353,518
38761,383,518
38776,377,518
38792,369,518
38807,393,518
38823,425,518
38839,410,518
38854,334,518
38870,288,518
38886,280,518
38901,279,518
38917,258,518
38932,250,518
38948,265,518
38964,290,518
38979,283,518
38994,255,518
39010,254,518
39026,280,518
39042,303,518
39057,282,518
39072,268,518
39089,272,518
39104,300,518
39119,299,518
39135,282,518
39151,274,518
39166,298,518
39182,329,518
39197,311,518
39214,300,518
39229,318,518
39244,352,518
39260,361,518
39275,335,518
39291,328,518
39307,339,518
39322,368,518
39337,372,518
39354,344,518
39369,343,518
39385,368,518
39400,370,518
39416,355,518
39432,343,518
39447,413,518
39462,370,518
39479,353,518
39494,365,518
39510,371,518
39525,400,518
39540,405,518
39557,392,518
39572,373,518
39587,393,518
39603,412,518
39619,420,518
39634,392,518
39650,398,518
39665,430,518
39682,466,518
39697,458,518
39712,450,518
39728,463,518
39743,477,518
39759,432,518
39775,345,518
39790,299,518
39805,301,518
39822,305,518
39837,293,518
39853,259,518
39868,265,518
39884,291,518
39900,304,518
39915,274,518
39930,267,518
39947,297,518
39962,319,518
39977,308,518
39993,269,518
40008,266,518
40025,284,518
40040,295,518
40055,269,518
40071,246,518
40087,259,518
40102,288,518
40118,282,518
40133,251,518
40150,244,518
40165,272,518
40180,282,518
40196,267,518
40212,243,518
40227,264,518
40243,291,518
40258,292,518
40273,259,518
40290,279,518
40305,303,518
40321,324,518
40336,284,518
40352,248,518
40368,261,518
40383,304,518
40398,307,518
40415,302,518
40430,235,518
40445,264,518
40461,309,518
40477,300,518
40493,264,518
40508,292,518
40523,311,518
40539,322,518
40555,303,518
40570,313,518
40586,334,518
40601,383,518
40617,387,518
40633,372,518
40648,401,518
40664,427,518
40680,431,518
40695,425,518
40711,398,518
40726,378,518
40741,362,518
40758,334,518
40773,296,518
40788,301,518
40804,343,518
40820,352,518
40836,329,518
40851,322,518
40866,341,518
40883,370,518
40898,359,518
40913,338,518
40929,345,518
40945,372,518
40961,393,518
40976,373,518
40991,355,518
41007,334,518
41023,363,518
41038,346,518
41054,342,518
41069,313,518
41085,333,518
41101,342,518
41116,303,518
41132,294,518
41148,300,518
41163,371,518
41179,384,518
41194,347,518
41210,326,518
41226,340,518
41241,349,518
41256,341,518
41272,298,518
41288,311,518
41304,344,518
41319,343,518
41334,325,518
41351,320,518
41366,342,518
41381,370,518
41397,357,518
41413,330,518
41428,326,518
41444,352,518
41459,389,518
41476,327,518
41491,267,518
41506,324,518
41522,353,518
41537,371,518
41553,344,518
41569,345,518
41584,374,518
41600,380,518
41616,367,518
41631,345,518
41647,358,518
41662,387,518
41678,392,518
41694,392,518
41709,401,518
41724,434,518
41740,452,518
41756,428,518
41772,397,518
41787,353,518
41802,326,518
41819,271,518
41834,249,518
41849,288,518
41865,340,518
41881,325,518
41896,305,518
41912,276,518
41927,279,518
41944,297,518
41959,302,518
41974,294,518
41990,287,518
42005,307,518
42021,328,518
42037,313,518
42052,277,518
42067,279,518
42084,291,518
42099,294,518
42115,257,518
42130,251,518
42146,272,518
42162,298,518
42177,301,518
42192,291,518
42209,304,518
42224,334,518
42240,353,518
42255,331,518
42270,317,518
42287,332,518
42302,357,518
42317,354,518
42333,321,518
42349,311,518
42364,329,518
42380,335,518
42395,316,518
42412,313,518
42427,330,518
42442,360,518
42458,361,518
42474,330,518
42489,322,518
42505,332,518
42520,348,518
42535,335,518
42552,316,518
42567,376,518
42583,334,518
42598,309,518
42614,322,518
42630,330,518
42645,348,518
42660,364,518
42677,349,518
42692,333,518
42707,345,518
42723,372,518
42738,382,518
42755,366,518
42770,360,518
42785,394,518
42801,427,518
42817,429,518
42832,416,518
42848,425,518
42863,448,518
42880,420,518
42895,350,518
42910,296,518
42926,286,518
42942,309,518
42957,301,518
42973,280,518
42988,286,518
43003,312,518
43020,322,518
43035,302,518
43051,284,518
43066,300,518
43082,321,518
43098,317,518
43113,294,518
43128,289,518
43145,309,518
43160,326,518
43175,311,518
43191,291,518
43207,307,518
43223,325,518
43238,326,518
43253,302,518
43269,292,518
43285,308,518
43300,322,518
43316,310,518
43331,294,518
43347,302,518
43363,335,518
43378,332,518
43394,302,518
43410,291,517
43425,311,517
43441,329,517
43456,319,517
43472,297,517
43488,305,517
43503,330,518
43518,339,518
43534,321,518
43550,314,518
43566,332,518
43581,347,518
43596,339,518
43613,310,518
43628,312,518
43643,334,518
43659,341,518
43675,377,518
43691,284,518
43706,282,518
43721,347,518
43737,360,518
43753,336,518
43768,342,518
43784,372,519
43799,385,518
43815,374,518
43831,359,518
43846,376,518
43862,407,518
43878,407,518
43893,394,518
43909,407,518
43924,441,518
43940,463,518
43956,445,518
43971,416,517
43986,389,517
44002,373,517
44018,330,517
44034,287,517
44049,272,518
44064,283,518
44081,302,518
44096,291,518
44111,267,517
44127,276,518
44143,303,518
44158,308,518
44174,286,518
44189,277,518
44206,291,518
44221,307,518
44236,297,518
44252,272,518
44267,277,518
44283,307,518
44299,315,518
44314,297,518
44329,282,518
44346,302,518
44361,327,518
44377,325,518
44392,296,518
44408,299,518
44424,323,518
44439,332,518
44454,307,518
44471,293,518
44486,305,518
44502,331,518
44517,328,518
44532,309,518
44549,309,518
44564,332,518
44579,345,518
44595,332,518
44611,313,518
44626,323,518
44642,342,518
44657,344,518
44674,327,518
44689,326,518
44704,347,518
44720,360,518
44735,333,518
44751,310,518
44767,313,518
44782,367,518
44797,349,518
44814,265,518
44829,286,518
44845,332,518
44860,364,518
44876,355,518
44892,337,518
44907,345,518
44922,376,518
44939,386,518
44954,374,518
44969,367,518
44985,389,518
45000,419,518
45017,424,518
45032,413,518
45047,428,518
45063,471,518
45079,479,518
45094,440,518
45110,380,518
45125,339,518
45142,327,518
45157,302,518
45172,273,518
45188,272,518
45204,298,518
45219,307,518
45235,292,518
45250,274,518
45265,289,518
45282,312,518
45297,312,518
45313,284,518
45328,278,518
45344,298,518
45360,308,518
45375,299,518
45390,280,518
45407,292,518
45422,320,518
45437,322,518
45453,296,518
45469,290,518
45485,312,518
45500,328,518
45515,313,518
45531,294,518
45547,299,518
45562,324,518
45578,330,518
45593,309,518
45609,298,518
45625,318,518
45640,337,518
45656,334,518
45672,308,518
45687,314,518
45703,337,518
45718,348,518
45733,330,518
45750,322,518
45765,339,518
45780,356,519
45796,342,519
45812,316,519
45828,310,518
45843,335,518
45858,343,518
45875,367,518
45890,315,518
45905,255,518
45921,316,518
45937,342,518
45953,333,518
45968,331,518
45983,359,518
45999,377,518
46015,363,518
46030,351,518
46046,362,518
46061,384,518
46077,397,518
46093,389,518
46108,400,518
46124,441,518
46140,470,518
46155,469,518
46171,446,518
46186,424,518
46202,397,518
46218,340,518
46233,285,518
46248,262,517
46264,278,518
46280,296,517
46296,287,518
46311,268,518
46326,277,518
46343,303,518
46358,308,518
46373,287,518
46389,273,518
46405,290,518
46420,311,518
46436,300,518
46451,277,518
46468,277,518
46483,307,518
46498,319,518
46514,302,518
46529,285,518
46545,304,518
46561,322,518
46576,326,518
46592,296,518
46608,298,518
46623,322,518
46639,333,518
46654,316,518
46670,293,518
46686,308,518
46701,334,518
46716,333,518
46732,306,518
46748,304,518
46764,327,518
46779,340,518
46794,333,518
46811,308,518
46826,322,518
46841,349,518
46857,350,518
46873,329,518
46888,314,518
46904,334,518
46919,345,518
46936,336,518
46951,308,518
46966,356,518
46982,368,518
46997,290,518
47013,296,518
47029,319,518
47044,350,518
47059,374,518
47076,366,518
47091,343,518
47107,348,518
47122,380,518
47138,393,518
47154,377,518
47169,366,518
47184,397,518
47201,433,518
47216,450,518
47232,442,518
47247,460,518
47262,482,518
47279,469,518
47294,392,518
47309,315,518
47325,290,518
47341,301,518
47356,293,518
47372,271,518
47387,269,518
47404,292,518
47419,307,518
47434,289,518
47450,268,518
47466,280,518
47481,308,518
47497,304,518
47512,277,518
47527,272,518
47544,297,518
47559,313,518
47575,300,518
47590,281,518
47606,287,518
47622,315,518
47637,317,518
47652,300,518
47669,288,518
47684,309,518
47699,325,518
47715,317,518
47730,295,518
47747,297,518
47762,325,518
47777,326,518
47793,307,518
47809,297,518
47824,311,518
47840,335,518
47855,325,518
47872,300,518
47887,303,518
47902,329,518
47918,344,518
47934,329,518
47949,309,518
47965,321,518
47980,341,518
47995,333,518
48012,304,518
48027,341,518
48043,365,518
48058,278,518
48074,288,518
48090,307,518
48105,340,518
48120,362,518
48137,363,518
48152,349,518
48167,346,518
48183,375,518
48199,394,518
48215,379,518
48230,371,518
48245,392,518
48261,434,518
48277,455,518
48292,456,518
48308,469,518
48323,489,518
48339,475,518
48355,405,518
48370,307,518
48386,269,518
48402,276,518
48417,277,518
48433,258,518
48448,254,518
48464,273,518
48480,289,518
48495,282,518
48510,273,518
48526,269,518
48542,299,518
48558,305,518
48573,306,518
48588,301,518
48605,311,518
48620,333,518
48635,313,518
48651,274,518
48667,283,518
48683,300,518
48698,310,518
48713,292,518
48729,270,518
48745,281,518
48760,298,518
48776,293,518
48791,267,518
48807,256,518
48823,278,518
48838,286,518
48854,272,518
48870,254,518
48885,270,518
48901,282,518
48916,290,518
48932,276,518
48948,295,518
48963,315,518
48978,322,518
48994,320,518
49010,288,518
49026,288,518
49041,309,518
49056,339,518
49073,236,518
49088,155,518
49103,251,518
49119,330,518
49135,333,518
49150,316,518
49166,316,518
49181,324,518
49198,373,518
49213,364,518
49228,370,518
49244,423,518
49259,489,518
49275,482,518
49291,499,518
49306,514,518
49321,524,518
49338,515,518
49353,475,518
49369,403,518
49384,346,518
49400,324,518
49416,319,518
49431,279,518
49446,279,518
49463,310,518
49478,330,518
49494,313,518
49509,298,518
49524,304,518
49541,318,518
49556,313,518
49571,271,518
49587,287,518
49603,323,518
49618,336,518
49634,324,518
49649,299,518
49666,308,518
49681,334,518
49696,347,518
49712,320,518
49727,297,518
49743,313,518
49759,334,518
49774,329,518
49789,314,518
49806,326,518
49821,366,518
49837,358,518
49852,322,518
49868,322,518
49884,332,518
49899,344,518
49914,342,518
49931,320,518
49946,369,518
49961,343,518
49977,272,518
49992,310,518
50009,310,518
50024,335,518
50039,360,518
50055,353,518
50071,337,518
50086,342,518
50102,376,518
50117,380,518
50134,376,518
50149,364,518
50164,399,518
50180,433,518
50196,448,518
50211,434,518
50227,439,518
50242,452,518
50257,407,518
50274,329,518
50289,244,518
50305,238,518
50320,269,518
50336,274,518
50352,253,518
50367,260,518
50382,292,518
50399,330,518
50414,317,518
50429,293,518
50445,292,518
50461,321,518
50477,320,518
50492,298,518
50507,289,518
50523,303,518
50539,335,518
50554,318,518
50570,287,518
50585,282,518
50601,307,518
50617,315,518
50632,287,518
50648,277,518
50664,295,518
50679,324,518
50695,321,518
50710,284,518
50725,286,518
50742,326,518
50757,347,518
50772,327,518
50788,319,518
50804,329,518
50820,360,518
50835,358,518
50850,328,518
50867,373,518
50882,342,518
50897,315,518
50913,335,518
50929,341,518
50945,358,518
50960,395,518
50975,388,518
50991,355,518
51007,348,518
51022,377,518
51038,397,518
51053,389,518
51069,372,518
51085,395,518
51100,438,518
51116,457,518
51132,450,518
51147,447,518
51163,455,518
51178,421,518
51194,348,518
51210,283,518
51225,259,518
51240,282,518
51256,287,518
51272,261,518
51288,246,518
51303,277,518
51318,298,518
51335,287,518
51350,258,518
51365,262,518
51381,293,518
51397,303,518
51412,278,518
51428,269,518
51443,285,518
51460,310,518
51475,304,518
51490,274,518
51506,274,518
51521,306,518
51537,320,518
51553,299,518
51568,281,518
51584,297,518
51600,323,518
51615,318,518
51631,288,518
51646,278,518
51662,302,518
51678,311,518
51693,279,518
51708,251,518
51724,288,518
51740,337,518
51756,344,518
51771,326,518
51786,316,518
51803,335,518
51818,348,518
51833,331,518
51849,360,518
51865,321,518
51880,307,518
51896,349,518
51911,337,518
51928,327,518
51943,347,518
51958,372,518
51974,363,518
51989,341,518
52005,355,518
52021,380,518
52036,388,518
52051,380,518
52068,372,518
52083,409,518
52099,439,518
52114,460,518
52130,431,518
52146,429,518
52161,416,518
52176,364,518
52193,298,518
52208,270,518
52224,271,518
52239,299,518
52254,292,518
52271,266,518
52286,273,518
52301,304,518
52317,318,518
52333,301,518
52348,280,518
52364,292,518
52379,318,518
52396,317,518
52411,293,518
52426,290,518
52442,313,518
52458,323,518
52473,308,518
52489,287,518
52504,304,518
52519,335,518
52536,337,518
52551,317,518
52567,291,518
52582,328,518
52598,338,518
52614,332,518
52629,318,518
52644,335,518
52661,383,518
52676,380,518
52691,360,518
52707,341,518
52722,347,518
52739,368,518
52754,391,518
52769,336,518
52785,306,518
52801,349,518
52816,355,518
52832,343,518
52847,331,518
52864,349,518
52879,365,518
52894,362,518
52910,345,518
52926,347,518
52941,381,518
52957,393,518
52972,385,518
52987,380,518
53004,406,518
53019,448,518
53035,458,518
53050,429,518
53066,394,518
53082,362,518
53097,336,518
53112,300,518
53129,274,518
53144,279,518
53159,301,518
53175,302,518
53191,279,518
53207,276,518
53222,305,518
53237,322,518
53253,309,518
53269,287,518
53284,296,518
53300,319,518
53315,318,518
53331,292,518
53347,284,518
53362,307,518
53378,331,518
53394,318,518
53409,298,518
53425,303,518
53440,330,518
53456,336,518
53472,310,518
53487,294,518
53502,311,518
53518,337,518
53534,330,518
53550,306,518
53565,308,518
53580,335,518
53597,345,518
53612,322,518
53627,304,518
53643,321,518
53659,384,518
53675,331,518
53690,275,518
53705,306,518
53721,339,518
53737,362,518
53752,341,518
53768,321,518
53783,333,518
53799,360,518
53815,358,518
53830,336,518
53846,338,518
53862,370,518
53877,397,518
53893,394,518
53908,393,518
53924,421,518
53940,457,518
53955,448,518
53970,386,518
53986,327,518
54002,311,518
54018,301,518
54033,288,518
54048,262,518
54065,274,518
54080,306,518
54095,310,518
54111,290,518
54127,276,518
54142,296,518
54158,320,518
54173,310,518
54190,286,518
54205,288,518
54220,316,518
54236,323,518
54251,299,518
54267,285,518
54283,300,518
54298,325,518
54313,321,518
54330,293,518
54345,293,518
54361,321,518
54376,332,518
54392,310,518
54408,295,518
54423,309,518
54438,338,518
54455,331,518
54470,304,518
54486,302,518
54501,325,518
54516,338,518
54533,321,518
54548,306,518
54563,319,518
54579,345,518
54595,348,518
54610,312,518
54626,304,518
54641,325,518
54658,345,518
54673,369,518
54688,295,518
54704,290,518
54719,337,518
54735,352,518
54751,326,518
54766,323,518
54781,347,518
54798,369,518
54813,361,518
54829,339,518
54844,349,518
54860,383,518
54876,400,518
54891,386,518
54906,389,518
54923,426,518
54938,460,518
54953,458,518
54969,422,518
54984,384,518
55001,360,518
55016,331,518
55031,291,518
55047,271,518
55063,288,518
55078,310,518
55094,304,518
55109,280,518
55126,279,518
55141,310,518
55156,321,518
55172,301,518
55188,281,518
55203,299,518
55219,324,518
55234,320,518
55249,296,518
55266,293,518
55281,316,518
55297,333,518
55312,314,518
55328,297,518
55344,309,518
55359,336,518
55374,334,518
55391,303,518
55406,297,518
55421,318,518
55437,341,518
55453,321,518
55469,296,518
55484,306,518
55499,334,518
55515,336,518
55531,313,518
55546,301,518
55562,322,518
55577,342,518
55593,331,518
55609,306,518
55624,311,518
55640,342,518
55656,354,518
55671,327,518
55687,314,518
55702,325,518
55717,346,518
55734,337,518
55749,319,518
55764,340,518
55780,328,518
55796,328,518
55812,323,518
55827,321,518
55842,341,518
55859,364,518
55874,363,518
55889,337,518
55905,340,518
55921,367,518
55937,389,518
55952,376,518
55967,365,518
55983,390,518
55999,433,518
56014,444,518
56030,435,518
56045,438,518
56061,449,518
56077,428,518
56092,352,518
56108,295,518
56124,283,518
56139,306,518
56155,304,518
56170,281,518
56186,271,518
56202,291,518
56217,310,518
56232,301,518
56248,278,518
56264,285,518
56280,308,518
56295,315,518
56310,293,518
56327,280,518
56342,302,518
56357,324,518
56373,311,518
56389,284,518
56404,286,518
56420,315,518
56435,326,518
56452,308,518
56467,290,518
56482,307,518
56498,332,518
56513,321,518
56529,301,518
56545,299,518
56560,325,518
56576,340,518
56592,324,518
56607,303,518
56623,316,518
56638,345,518
56654,343,518
56670,311,518
56685,308,518
56700,335,518
56716,352,518
56732,338,518
56748,320,518
56763,329,518
56778,356,518
56795,357,518
56810,326,518
56825,323,518
56841,339,518
56857,350,518
56872,330,518
56888,306,518
56903,357,518
56920,333,518
56935,308,518
56950,312,518
56966,325,518
56981,348,518
56997,374,518
57013,364,518
57028,337,518
57043,341,518
57060,374,518
57075,391,518
57091,375,518
57106,368,518
57122,399,518
57138,433,518
57153,441,518
57168,429,518
57185,439,518
57200,458,518
57216,428,518
57231,353,518
57246,295,518
57263,285,518
57278,304,518
57293,303,518
57309,279,518
57325,280,518
57340,305,518
57356,318,518
57371,296,518
57388,278,518
57403,284,518
57418,318,518
57434,315,518
57450,286,518
57465,279,518
57481,303,518
57496,323,518
57511,306,518
57528,285,518
57543,290,518
57559,320,518
57574,323,518
57590,302,518
57606,293,518
57621,315,518
57636,338,518
57653,325,518
57668,301,518
57683,308,518
57699,335,518
57714,341,518
57731,314,518
57746,303,518
57761,327,518
57777,350,518
57793,342,518
57808,315,518
57824,318,518
57839,346,518
57856,355,518
57871,331,518
57886,318,518
57902,335,518
57918,368,518
57933,366,518
57949,329,518
57964,327,518
57979,344,518
57996,353,518
58011,333,518
58027,314,518
58042,376,518
58058,344,518
58074,306,518
58089,305,518
58104,324,518
58121,353,518
58136,369,518
58151,355,518
58167,335,518
58183,347,518
58199,378,518
58214,389,518
58229,371,518
58245,368,518
58261,403,518
58276,436,518
58292,441,518
58307,431,518
58323,451,518
58339,480,518
58354,449,518
58370,364,518
58386,302,518
58401,290,518
58417,300,518
58432,288,518
58448,262,518
58464,270,518
58479,297,518
58494,304,518
58510,282,518
58526,266,518
58542,280,518
58557,301,518
58572,293,518
58589,266,518
58604,267,518
58619,293,518
58635,305,518
58651,285,518
58667,267,518
58682,283,518
58697,308,518
58713,304,518
58729,276,518
58744,276,518
58760,303,518
58775,321,518
58791,302,518
58807,279,518
58822,289,518
58838,317,518
58854,318,518
58869,289,518
58885,285,518
58900,307,518
58916,322,518
58932,307,518
58947,284,518
58962,293,518
58978,320,518
58994,329,518
59010,305,518
59025,298,518
59040,322,518
59057,345,518
59072,338,518
59087,310,518
59103,321,518
59119,344,518
59134,348,518
59150,329,518
59165,342,518
59182,370,518
59197,320,518
59212,336,518
59228,321,518
59243,342,518
59259,367,518
59275,378,518
59290,358,518
59305,342,518
59322,363,518
59337,396,518
59353,392,518
59368,372,518
59384,377,518
59400,416,518
59415,444,518
59430,438,518
59447,428,518
59462,443,518
59478,453,518
59493,405,518
59508,325,518
59525,284,518
59540,297,518
59555,310,518
59571,293,518
59587,275,518
59602,287,518
59618,312,518
59633,314,518
59650,289,518
59665,283,518
59680,303,518
59696,324,518
59711,307,518
59727,282,518
59743,290,518
59758,318,518
59773,325,518
59790,305,518
59805,287,518
59821,306,518
59836,326,518
59852,316,518
59868,290,518
59883,294,518
59898,322,518
59915,330,518
59930,306,518
59945,291,518
59961,309,518
59976,339,518
59993,335,518
60008,309,518
60023,307,518
60039,336,518
60055,348,518
60070,326,518
60086,305,518
60101,324,518
60118,351,518
60133,347,518
60148,320,518
60164,316,518
60180,344,518
60195,350,518
60211,333,518
60226,310,518
60241,348,518
60258,339,518
60273,298,518
60289,294,518
60304,303,518
60320,338,518
60336,357,518
60351,344,518
60366,318,518
60383,329,518
60398,360,518
60413,370,518
60429,351,518
60445,349,518
60461,382,518
60476,418,518
60491,422,518
60507,416,518
60523,435,518
60538,464,518
60554,447,518
60569,374,518
60585,308,518
60601,289,518
60616,301,518
60632,288,518
60648,268,518
60663,276,518
60679,304,518
60694,316,518
60709,297,518
60726,281,518
60741,297,518
60756,319,518
60772,314,518
60788,290,518
60804,282,518
60819,308,518
60834,323,518
60851,304,518
60866,282,518
60881,296,518
60897,324,518
60913,325,518
60929,301,518
60944,296,518
60959,323,518
60975,337,518
60991,323,518
61006,300,518
61022,312,518
61037,336,518
61053,342,518
61069,310,518
61084,297,518
61100,319,518
61116,340,518
61131,329,518
61147,305,518
61162,312,518
61178,343,518
61194,346,518
61209,318,518
61224,309,518
61240,333,518
61256,356,518
61272,338,518
61287,315,518
61302,311,518
61319,337,518
61334,344,518
61349,328,518
61365,357,518
61381,323,518
61396,307,518
61412,331,518
61427,332,518
61444,327,518
61459,357,518
61474,372,518
61490,351,518
61505,337,518
61521,356,518
61537,388,518
61552,388,518
61568,372,518
61584,384,518
61599,427,518
61615,455,518
61630,454,518
61646,445,518
61662,455,518
61677,438,518
61692,375,518
61708,298,518
61724,266,518
61740,286,518
61755,302,518
61770,287,518
61787,262,518
61802,275,518
61817,304,518
61833,309,518
61849,285,518
61864,277,518
61880,299,518
61895,317,518
61912,306,518
61927,280,518
61942,283,518
61958,311,518
61973,319,518
61989,295,518
62005,284,518
62020,301,518
62035,322,518
62052,312,518
62067,289,518
62083,292,518
62098,324,518
62114,332,518
62130,309,518
62145,294,518
62160,321,518
62177,350,518
62192,344,518
62208,311,518
62223,311,518
62238,336,518
62255,347,518
62270,332,518
62285,312,518
62301,329,518
62317,355,518
62332,351,518
62348,323,518
62363,317,518
62380,342,518
62395,352,518
62410,329,518
62426,303,518
62442,361,518
62457,351,518
62473,297,518
62488,299,518
62503,319,518
62520,354,518
62535,373,518
62551,357,518
62566,334,518
62582,345,518
62598,377,518
62613,381,518
62628,361,518
62645,364,518
62660,395,518
62675,430,518
62691,437,518
62706,434,518
62723,455,518
62738,479,518
62753,458,518
62769,370,518
62785,299,518
62800,283,518
62816,289,518
62831,281,518
62848,251,518
62863,258,518
62878,287,518
62894,301,518
62910,278,518
62925,265,518
62941,282,518
62956,308,518
62971,302,518
62988,272,518
63003,267,518
63019,293,518
63034,310,518
63050,297,518
63066,277,518
63081,295,518
63096,319,518
63113,315,518
63128,290,518
63143,284,518
63159,314,518
63175,328,518
63191,307,518
63206,289,518
63221,302,518
63237,331,518
63253,331,518
63268,303,518
63284,299,518
63299,326,518
63315,344,518
63331,332,518
63346,309,518
63362,320,518
63378,351,518
63393,358,518
63409,329,518
63424,321,518
63440,329,518
63456,354,518
63471,341,518
63486,346,518
63502,342,518
63518,307,518
63534,319,518
63549,329,518
63564,332,518
63581,349,518
63596,371,518
63611,366,518
63627,344,518
63643,349,518
63659,382,518
63674,399,518
63689,390,518
63705,387,518
63721,420,518
63736,465,518
63752,480,518
63767,470,518
63783,471,518
63799,473,518
63814,418,518
63830,335,518
63846,275,518
63861,267,518
63877,289,518
63892,291,518
63908,267,518
63924,266,518
63939,294,518
63954,311,518
63970,298,518
63986,279,518
64002,286,518
64017,310,518
64032,309,518
64049,282,518
64064,271,518
64079,292,518
64095,308,518
64111,293,518
64126,275,518
64142,278,518
64157,308,518
64174,312,518
64189,288,518
64204,279,518
64220,297,518
64235,316,518
64251,308,518
64267,287,518
64282,290,518
64297,322,518
64314,323,518
64329,305,518
64345,290,518
64360,310,518
64376,337,518
64392,330,518
64407,306,518
64422,309,518
64439,344,518
64454,351,518
64470,332,518
64485,303,518
64500,315,518
64517,333,518
64532,354,518
64547,348,518
64563,287,518
64579,285,518
64594,347,518
64610,350,518
64625,329,518
64642,349,518
64657,378,518
64672,378,518
64688,355,518
64703,355,518
64719,385,518
64735,411,518
64750,406,518
64765,403,518
64782,431,518
64797,486,518
64813,505,518
64828,482,518
64844,452,518
64860,412,518
64875,349,518
64890,288,518
64907,238,518
64922,240,518
64937,270,518
64953,277,518
64968,260,518
64985,254,518
65000,277,518
65015,296,518
65031,289,518
65047,269,518
65062,274,518
65078,302,518
65093,309,518
65110,284,518
65125,268,518
65140,286,518
65156,313,518
65172,306,518
65187,280,518
65203,281,518
65218,312,518
65233,323,518
65250,302,518
65265,284,518
65281,293,518
65296,321,518
65312,317,518
65328,293,518
65343,289,518
65358,319,518
65375,334,518
65390,319,518
65405,299,518
65421,318,518
65437,348,518
65453,349,518
65468,321,518
65483,314,518
65499,338,518
65515,356,518
65530,332,518
65546,310,518
65561,322,518
65577,352,518
65593,415,518
65608,335,518
65624,251,518
65640,326,518
65655,375,518
65671,367,518
65686,346,518
65701,351,518
65718,377,518
65733,386,518
65748,365,518
65764,358,518
65780,381,518
65796,417,518
65811,418,518
65826,408,518
65843,434,518
65858,487,518
65873,508,518
65889,474,518
65905,413,518
65921,360,518
65936,328,518
65951,286,518
65967,246,518
65983,245,518
65998,276,518
66014,290,518
66029,275,518
66045,259,518
66061,277,518
66076,309,518
66092,304,518
66108,273,518
66123,269,518
66139,297,518
66154,310,518
66170,289,518
66186,270,518
66201,282,518
66216,307,518
66232,312,518
66248,289,518
66264,287,518
66279,311,518
66294,328,518
66311,312,518
66326,291,518
66341,300,518
66357,328,518
66373,328,518
66388,302,518
66404,293,518
66419,316,518
66436,333,518
66451,316,518
66466,290,518
66482,298,518
66497,328,518
66513,335,518
66529,310,518
66544,295,518
66560,318,518
66576,339,518
66591,333,518
66607,302,518
66622,310,518
66638,333,518
66654,339,518
66669,317,518
66684,310,518
66700,383,518
66716,348,518
66732,293,518
66747,310,518
66762,334,518
66779,364,518
66794,378,518
66809,357,518
66825,340,518
66841,357,518
66856,388,518
66872,392,518
66887,371,518
66904,378,518
66919,415,518
66934,449,518
66950,452,518
66965,453,518
66981,479,518
66997,504,518
67012,450,518
67027,352,518
67044,291,518
67059,286,518
67075,293,518
67090,275,518
67106,257,518
67122,269,518
67137,304,518
67152,306,518
67169,282,518
67184,272,518
67200,295,518
67215,316,518
67230,303,518
67247,275,518
67262,283,518
67277,310,518
67293,314,518
67309,289,518
67324,278,518
67340,298,518
67355,322,518
67372,309,518
67387,284,518
67402,287,518
67418,314,518
67434,322,518
67449,303,518
67465,288,518
67480,310,518
67495,334,518
67512,325,518
67527,298,518
67543,300,518
67558,333,518
67574,346,518
67590,327,518
67605,308,518
67620,327,518
67637,343,518
67652,337,518
67667,312,518
67683,327,518
67698,377,518
67715,338,518
67730,296,518
67745,305,518
67761,339,518
67777,367,518
67792,367,518
67808,342,518
67823,339,518
67840,373,518
67855,389,518
67870,378,518
67886,362,518
67902,385,518
67917,432,518
67933,456,518
67948,449,518
67963,464,518
67980,495,518
67995,493,518
68011,414,518
68026,323,518
68042,290,518
68058,295,518
68073,293,518
68088,266,518
68105,258,518
68120,283,518
68135,308,518
68151,302,518
68167,273,518
68183,285,518
68198,307,518
68213,313,518
68229,286,518
68245,274,518
68260,291,518
68276,315,518
68291,310,518
68307,278,518
68323,284,518
68338,309,518
68354,323,518
68370,300,518
68385,285,518
68401,300,518
68416,328,518
68432,326,518
68448,295,518
68463,295,518
68478,318,518
68494,329,518
68510,314,518
68526,291,518
68541,310,518
68556,335,518
68573,336,518
68588,303,518
68603,304,518
68619,333,518
68635,348,518
68651,333,518
68666,307,518
68681,316,518
68697,343,518
68713,347,518
68728,316,518
68744,341,518
68759,357,518
68775,323,518
68791,302,518
68806,311,518
68822,338,518
68838,369,518
68853,379,518
68869,350,518
68884,339,518
68900,364,518
68916,395,518
68931,389,518
68946,374,518
68962,393,518
68978,440,518
68994,466,518
69009,465,518
69024,470,518
69041,496,518
69056,498,518
69071,418,518
69087,323,518
69103,282,518
69118,288,518
69134,287,518
69149,269,518
69166,248,518
69181,268,518
69196,300,518
69212,296,518
69227,267,518
69243,265,518
69259,295,518
69274,307,518
69289,284,518
69306,267,518
69321,282,518
69337,307,518
69352,304,518
69368,279,518
69384,278,518
69399,304,518
69414,322,518
69431,300,518
69446,280,518
69462,294,518
69477,325,518
69492,322,518
69509,297,518
69524,292,518
69539,314,518
69555,334,518
69571,319,518
69586,299,518
69602,305,518
69617,334,518
69634,336,518
69649,311,518
69664,303,518
69680,327,518
69695,354,518
69711,341,518
69727,317,518
69742,323,518
69757,348,518
69774,347,518
69789,322,518
69805,306,518
69820,348,518
69836,375,518
69852,314,518
69867,262,518
69882,308,518
69899,359,518
69914,367,518
69929,341,518
69945,323,518
69960,347,518
69977,376,518
69992,372,518
70007,353,518
70023,359,518
70039,397,518
70054,427,518
70070,429,518
70085,441,518
70102,476,518
70117,509,518
70132,480,518
70148,391,518
70164,320,518
70179,301,518
70195,293,518
70210,268,518
70225,247,518
70242,266,518
70257,296,518
70273,294,518
70288,273,518
70304,265,518
70320,294,518
70335,312,518
70350,298,518
70367,274,518
70382,282,518
70397,312,518
70413,312,518
70429,288,518
70445,281,518
70460,303,518
70475,325,518
70491,309,518
70507,284,518
70522,294,518
70538,324,518
70553,326,518
70569,300,518
70585,290,518
70600,309,518
70616,335,518
70632,319,518
70647,294,518
70663,303,518
70678,327,518
70693,336,518
70710,309,518
70725,303,518
70740,322,518
70756,348,518
70772,340,518
70788,307,518
70803,309,518
70818,338,518
70835,342,518
70850,378,518
70865,317,518
70881,263,518
70897,332,518
70913,348,518
70928,334,518
70943,332,518
70959,365,518
70975,381,518
70990,362,518
71006,344,518
71021,369,518
71037,400,518
71053,411,518
71068,396,518
71084,413,518
71100,462,518
71115,496,518
71131,495,518
71146,472,518
71162,442,518
71178,397,518
71193,332,518
71208,271,518
71224,254,518
71240,278,518
71256,294,518
71271,285,518
71286,262,518
71303,280,518
71318,303,518
71333,304,518
71349,280,518
71365,276,518
71380,298,518
71396,317,518
71411,303,518
71428,277,518
71443,286,518
71458,315,518
71474,317,518
71489,291,518
71505,281,518
71521,304,518
71536,330,518
71552,320,518
71568,292,518
71583,295,518
71599,323,518
71614,331,518
71630,304,518
71646,289,518
71661,310,518
71676,335,518
71692,323,518
71708,299,518
71724,301,518
71739,328,518
71754,336,518
71771,318,518
71786,301,518
71801,315,518
71817,341,518
71833,324,518
71848,297,518
71864,298,518
71879,329,518
71896,395,518
71911,318,518
71926,247,518
71942,310,518
71957,362,518
71973,353,518
71989,329,518
72004,327,518
72019,356,518
72036,370,518
72051,357,518
72067,344,518
72082,358,518
72098,398,518
72114,410,518
72129,398,518
72144,411,518
72161,457,518
72176,479,518
72192,456,518
72207,397,518
72222,352,518
72239,335,518
72254,311,518
72269,280,518
72285,269,518
72301,299,518
72316,321,518
72332,310,518
72347,286,518
72364,293,518
72379,321,518
72394,322,518
72410,295,518
72426,283,518
72441,306,518
72457,325,518
72472,313,518
72487,289,518
72504,296,518
72519,322,518
72535,327,518
72550,306,518
72566,289,518
72582,307,518
72597,330,518
72612,321,518
72629,296,518
72644,304,518
72659,334,518
72675,342,518
72690,319,518
72707,303,518
72722,319,518
72737,348,518
72753,335,518
72769,305,518
72784,308,518
72800,340,518
72815,395,518
72832,310,518
72847,265,518
72862,320,518
72878,361,518
72894,361,518
72909,342,518
72925,331,518
72940,369,518
72955,373,518
72972,359,518
72987,343,518
73003,363,518
73018,401,518
73034,408,518
73050,400,518
73065,419,518
73080,465,518
73097,497,518
73112,470,518
73127,399,518
73143,357,518
73159,341,518
73175,323,518
73190,286,518
73205,269,518
73221,293,518
73237,315,518
73252,294,518
73268,279,518
73283,271,518
73299,306,518
73315,307,518
73330,284,518
73346,268,518
73362,297,518
73377,313,518
73393,298,518
73408,267,518
73424,271,518
73440,299,518
73455,298,518
73470,279,518
73486,251,518
73502,284,518
73518,304,518
73533,301,518
73548,273,518
73565,279,518
73580,313,518
73595,317,518
73611,297,518
73627,285,518
73643,317,518
73658,343,518
73673,336,518
73689,299,518
73705,300,518
73720,323,518
73736,338,518
73751,349,518
73767,326,518
73783,270,518
73798,322,518
73814,332,518
73830,316,518
73845,316,518
73861,343,518
73876,368,518
73892,343,518
73908,334,518
73923,351,518
73938,385,518
73954,389,518
73970,374,518
73986,380,518
74001,433,518
74016,455,518
74033,451,518
74048,426,518
74063,408,518
74079,378,518
74095,323,518
74110,277,518
74126,254,518
74141,277,518
74158,286,518
74173,282,518
74188,261,518
74204,265,518
74219,289,518
74235,304,518
74251,283,518
74266,272,518
74281,301,518
74298,327,518
74313,313,518
74329,289,518
74344,295,518
74360,323,518
74376,321,518
74391,295,518
74406,288,518
74423,330,518
74438,354,518
74454,337,518
74469,316,518
74484,314,518
74501,351,518
74516,355,518
74531,335,518
74547,314,518
74563,338,518
74578,359,518
74594,328,518
74609,309,518
74626,319,518
74641,368,518
74656,310,518
74672,313,518
74687,310,518
74703,340,518
74719,367,518
74734,364,518
74749,335,518
74766,341,518
74781,370,518
74797,378,518
74812,365,518
74828,368,518
74844,401,518
74859,450,518
74874,455,518
74891,442,518
74906,448,518
74921,470,518
74937,452,518
74952,378,518
74969,316,518
74984,298,518
74999,317,518
75015,304,518
75031,285,518
75046,278,518
75062,309,518
75077,329,518
75094,314,518
75109,289,518
75124,303,518
75140,334,518
75156,331,518
75171,303,518
75187,300,518
75202,321,518
75217,340,518
75234,319,518
75249,295,518
75265,301,518
75280,333,518
75296,334,518
75312,309,518
75327,296,518
75342,320,518
75359,343,518
75374,328,518
75389,300,518
75405,305,518
75421,339,518
75437,345,518
75452,323,518
75467,310,518
75483,326,518
75499,352,518
75514,334,518
75530,304,518
75545,305,518
75561,332,518
75577,380,518
75592,296,518
75608,269,518
75624,321,518
75639,349,518
75655,344,518
75670,320,518
75685,323,518
75702,353,518
75717,367,518
75732,346,518
75748,333,518
75764,356,518
75780,388,518
75795,394,518
75810,377,518
75827,396,518
75842,444,518
75857,466,518
75873,433,518
75889,370,518
75905,331,518
75920,325,518
75935,302,518
75951,273,518
75967,270,518
75982,296,518
75998,313,518
76013,296,518
76029,274,518
76045,289,518
76060,318,518
76076,317,518
76092,289,518
76107,283,518
76123,307,518
76138,324,518
76154,305,518
76170,280,518
76185,290,518
76200,319,518
76216,322,518
76232,296,518
76248,287,518
76263,310,518
76278,335,518
76295,320,518
76310,297,518
76325,300,518
76341,331,518
76357,333,518
76372,308,518
76388,299,518
76403,321,518
76420,342,518
76435,328,518
76450,301,518
76466,306,518
76481,339,518
76497,349,518
76513,326,518
76528,308,518
76544,327,518
76560,344,518
76575,337,518
76591,312,518
76606,331,518
76622,359,518
76638,328,518
76653,319,518
76668,308,518
76684,339,518
76700,363,518
76716,359,518
76731,335,518
76746,337,518
76763,370,518
76778,380,518
76793,360,518
76809,346,518
76825,370,518
76840,407,518
76856,416,518
76871,403,518
76888,417,518
76903,450,518
76918,445,518
76934,379,518
76949,312,518
76965,296,518
76981,312,518
76996,304,518
77011,279,518
77028,273,518
77043,305,518
77059,321,518
77074,304,518
77090,283,518
77106,295,518
77121,324,518
77136,321,518
77153,289,518
77168,280,518
77184,305,518
77199,322,518
77214,307,518
77231,281,518
77246,292,518
77261,320,518
77277,326,518
77293,299,518
77308,287,518
77324,313,518
77339,332,518
77356,317,518
77371,296,518
77386,304,518
77402,334,518
77418,337,518
77433,311,518
77449,303,518
77464,321,518
77479,346,518
77496,331,518
77511,308,518
77527,312,518
77542,345,518
77558,351,518
77574,328,518
77589,313,518
77604,333,518
77621,354,518
77636,340,518
77651,307,518
77667,312,518
77682,337,518
77699,372,518
77714,321,518
77729,277,518
77745,318,518
77761,350,518
77776,356,518
77792,326,518
77807,331,518
77824,359,518
77839,376,518
77854,359,518
77870,343,518
77886,363,518
77901,399,518
77917,400,518
77932,385,518
77947,400,518
77964,445,518
77979,473,518
77995,456,518
78010,407,518
78026,373,518
78042,353,518
78057,317,518
78072,276,518
78089,270,518
78104,298,518
78119,315,518
78135,299,518
78151,273,518
78167,287,518
78182,318,518
78197,317,518
78213,289,518
78229,282,518
78244,305,518
78260,324,518
78275,313,518
78291,297,518
78307,305,518
78322,335,518
78338,335,518
78354,308,518
78369,301,518
78385,325,518
78400,342,518
78416,324,518
78432,299,518
78447,303,518
78462,332,518
78478,338,518
78494,310,518
78510,299,518
78525,320,518
78540,339,518
78557,327,518
78572,299,518
78587,303,518
78603,334,518
78619,336,518
78635,314,518
78650,294,518
78665,318,518
78681,339,518
78697,331,518
78712,306,518
78728,310,518
78743,336,518
78759,351,518
78775,318,518
78790,301,518
78806,315,518
78822,348,518
78837,373,518
78853,289,518
78868,279,518
78884,336,518
78900,364,518
78915,343,518
78930,322,518
78946,342,518
78962,365,518
78978,358,518
78993,329,518
79008,333,518
79025,370,518
79040,395,518
79055,386,518
79071,378,518
79087,410,518
79102,454,518
79118,458,518
79133,424,518
79150,374,518
79165,349,518
79180,335,518
79196,290,518
79211,264,518
79227,276,518
79243,301,518
79258,305,518
79273,276,518
79290,269,518
79305,302,518
79321,335,518
79336,310,518
79352,286,518
79368,277,518
79383,312,518
79398,320,518
79415,284,518
79430,290,518
79446,299,518
79461,322,518
79476,307,518
79493,282,518
79508,286,518
79523,324,518
79539,339,518
79555,316,518
79570,300,518
79586,334,518
79601,340,518
79618,331,518
79633,306,518
79648,308,518
79664,347,518
79679,356,518
79695,327,518
79711,310,518
79726,327,518
79741,354,518
79758,342,518
79773,315,518
79789,310,518
79804,349,518
79820,346,518
79836,328,518
79851,307,518
79866,327,518
79883,393,518
79898,325,518
79913,284,518
79929,312,518
79944,358,518
79961,370,518
79976,348,518
79991,333,518
80007,347,518
80023,379,518
80038,383,518
80054,357,518
80069,360,518
80086,393,518
80101,415,518
80116,419,518
80132,407,518
80148,437,518
80163,479,518
80179,458,518
80194,395,518
80209,334,518
80226,320,518
80241,316,518
80257,292,518
80272,273,518
80288,278,518
80304,315,518
80319,319,518
80334,291,518
80351,282,518
80366,300,518
80381,322,518
80397,307,518
80413,286,518
80429,291,518
80444,319,518
80459,323,518
80475,295,518
80491,282,518
80506,307,518
80522,326,518
80537,313,518
80553,290,518
80569,293,518
80584,319,518
80600,330,518
80616,306,518
80631,294,518
80647,311,518
80662,339,518
80677,329,518
80694,298,518
80709,299,518
80724,331,518
80740,338,518
80756,318,518
80772,301,518
80787,316,518
80802,345,518
80819,335,518
80834,312,518
80849,309,518
80865,336,518
80881,351,518
80897,332,518
80912,313,518
80927,328,518
80943,353,518
80959,343,518
80974,306,518
80990,304,518
81005,329,518
81021,394,518
81037,315,518
81052,264,518
81068,311,518
81084,355,518
81099,356,518
81115,333,518
81130,334,518
81146,361,518
81162,378,518
81177,365,518
81192,343,518
81208,356,518
81224,395,518
81240,410,518
81255,398,518
81270,404,518
81287,445,518
81302,477,518
81317,452,518
81333,400,518
81349,361,518
81364,341,518
81380,319,518
81395,277,518
81412,268,518
81427,290,518
81442,317,518
81458,302,518
81473,275,518
81489,278,518
81505,313,518
81520,313,518
81536,282,518
81552,272,518
81567,286,518
81583,317,518
81598,299,518
81614,277,518
81630,274,518
81645,309,518
81660,317,518
81676,301,518
81692,281,518
81708,300,518
81723,328,518
81738,321,518
81755,288,518
81770,293,518
81785,321,518
81801,329,518
81817,313,518
81832,294,518
81848,307,518
81863,333,518
81880,332,518
81895,298,518
81910,302,518
81926,334,518
81941,344,518
81957,319,518
81973,302,518
81988,316,518
82003,341,518
82020,340,518
82035,309,518
82051,313,518
82066,345,518
82082,364,518
82098,338,518
82113,319,518
82128,309,518
82145,343,518
82160,346,518
82176,330,518
82191,345,518
82206,297,518
82223,331,518
82238,337,518
82253,333,518
82269,340,518
82285,370,518
82300,375,518
82316,352,518
82331,335,518
82348,373,518
82363,393,518
82378,385,518
82394,364,518
82410,384,518
82425,431,518
82441,461,518
82456,446,518
82471,426,518
82488,440,518
82503,422,518
82519,358,518
82534,295,518
82550,268,518
82566,313,518
82581,313,518
82596,293,518
82613,280,518
82628,299,518
82643,320,518
82659,323,518
82674,293,518
82691,292,518
82706,308,518
82721,301,518
82737,276,518
82753,265,518
82768,285,518
82784,321,518
82799,232,518
82816,248,518
82831,279,518
82846,303,518
82862,323,518
82878,309,518
82893,300,518
82909,322,518
82924,343,518
82939,341,518
82956,300,518
82971,304,518
82987,324,518
83002,345,518
83018,323,518
83034,311,518
83049,326,518
83064,355,518
83081,354,518
83096,330,518
83111,320,518
83127,353,518
83143,359,518
83159,334,518
83174,314,518
83189,312,518
83205,360,518
83221,356,518
83236,337,518
83252,334,518
83267,365,518
83283,379,518
83299,347,518
83314,331,518
83330,335,518
83346,296,518
83361,294,518
83377,292,518
83392,315,518
83408,371,518
83424,409,518
83439,380,518
83454,360,518
83470,372,518
83486,407,518
83502,417,518
83517,385,518
83532,372,518
83549,411,518
83564,448,518
83579,442,518
83595,416,518
83611,399,518
83627,403,518
83642,373,518
83657,293,518
83673,235,518
83689,230,518
83704,257,518
83720,246,518
83735,214,518
83751,225,518
83767,269,518
83782,289,518
83798,280,518
83814,267,518
83829,272,518
83845,300,518
83860,299,518
83876,266,518
83892,269,518
83907,288,518
83922,318,518
83938,253,518
83954,0,518
83968,0,518
83981,0,518
83994,0,518
84008,0,518
84022,0,518
84035,0,518
84048,0,518
84062,0,518
84076,0,518
84089,0,517
84103,0,518
84116,0,517
84129,1,517
84144,152,517
84159,123,517
84174,85,517
84189,128,517
84204,177,518
84220,181,518
84236,136,518
84251,149,518
84267,219,518
84283,240,518
84298,177,518
84314,109,518
84329,95,518
84344,142,518
84360,120,518
84375,95,518
84389,138,518
84405,229,518
84421,230,518
84436,193,518
84452,192,518
84467,272,518
84484,305,517
84499,224,518
84514,198,518
84530,256,518
84546,351,518
84561,371,518
84577,335,518
84592,335,518
84609,396,518
84624,427,518
84639,390,518
84655,351,518
84670,390,518
84686,469,518
84702,502,518
84717,480,518
84732,488,518
84749,557,518
84764,598,518
84780,551,518
84795,464,518
84811,425,518
84827,431,518
84842,421,518
84857,362,518
84874,335,518
84889,386,518
84904,422,518
84920,401,518
84935,353,518
84952,360,518
84967,404,518
84982,403,518
84998,343,518
85014,295,518
85029,314,518
85045,336,518
85060,269,518
85076,197,518
85092,196,518
85107,224,518
85123,216,518
85139,153,518
85154,117,518
85170,148,518
85185,204,518
85200,197,518
85217,157,518
85232,175,518
85248,236,518
85263,279,518
85279,249,518
85295,233,518
85310,280,518
85325,341,518
85342,346,518
85357,311,518
85372,317,518
85388,377,518
85403,408,518
85420,376,518
85435,344,518
85450,383,518
85466,447,518
85482,453,518
85497,410,518
85513,412,518
85528,464,518
85544,504,518
85560,478,518
85575,439,518
85591,506,518
85607,527,518
85622,477,518
85638,472,518
85653,481,518
85668,546,518
85685,578,518
85700,554,518
85715,519,518
85731,547,518
85747,623,518
85763,644,518
85778,618,518
85793,629,518
85810,647,518
85825,649,518
85840,649,518
85856,650,518
85872,651,518
85888,651,518
85903,651,518
85918,651,518
85934,651,518
85950,651,518
85965,651,518
85981,651,518
85996,651,518
86012,651,518
86028,651,518
86043,651,518
86059,651,518
86075,651,518
86090,651,518
86106,651,518
86121,651,518
86137,651,518
86153,651,518
86168,651,518
86183,650,518
86199,649,518
86215,645,518
86231,574,518
86246,575,518
86261,536,518
86278,473,518
86293,442,518
86308,442,518
86324,434,518
86340,384,518
86355,339,518
86371,329,518
86386,337,518
86402,310,518
86418,264,518
86433,237,518
86449,247,518
86464,244,518
86480,217,518
86496,179,518
86511,178,518
86526,205,518
86543,194,518
86558,166,518
86574,150,518
86589,165,518
86605,179,518
86621,150,518
86636,115,518
86651,118,518
86667,144,518
86683,198,518
86699,91,518
86713,31,518
86727,119,518
86744,148,518
86759,122,518
86774,108,518
86790,133,518
86806,162,518
86821,157,518
86837,128,517
86852,141,518
86867,177,518
86884,201,518
86899,191,518
86915,191,518
86930,233,518
86946,282,518
86962,297,518
86977,265,518
86992,235,518
87009,200,518
87024,155,518
87040,108,518
87055,84,518
87070,116,518
87086,152,518
87101,137,518
87116,115,518
87132,129,518
87148,173,518
87163,175,518
87179,157,518
87194,145,518
87211,170,518
87226,199,518
87241,189,518
87257,165,518
87273,176,518
87288,212,518
87304,223,518
87319,205,518
87335,191,518
87351,210,518
87366,247,518
87382,235,518
87397,217,518
87413,217,518
87429,251,518
87444,269,518
87459,245,518
87476,227,518
87491,246,518
87506,279,518
87522,281,518
87538,250,518
87554,250,518
87569,283,518
87584,301,518
87600,288,518
87616,264,518
87631,283,518
87647,315,518
87662,317,518
87678,285,518
87694,278,518
87709,306,518
87725,345,518
87741,345,518
87756,249,518
87772,261,518
87787,327,518
87803,355,518
87819,329,518
87834,318,518
87849,352,518
87865,376,518
87881,367,518
87897,348,518
87912,365,518
87927,410,518
87944,421,518
87959,409,518
87974,430,518
87990,476,518
88006,519,518
88022,510,518
88037,453,518
88052,395,518
88069,357,518
88084,313,518
88099,266,518
88115,255,518
88130,280,518
88146,307,518
88162,295,518
88177,272,518
88193,277,518
88209,305,518
88224,317,518
88240,291,518
88255,272,518
88271,292,518
88287,314,518
88302,305,518
88317,275,518
88334,277,518
88349,306,518
88365,314,518
88380,296,518
88395,275,518
88412,299,518
88427,328,518
88442,326,518
88458,293,518
88474,294,518
88489,326,518
88505,340,518
88520,318,518
88537,292,518
88552,322,518
88567,356,518
88583,349,518
88598,331,518
88614,317,518
88630,353,518
88645,375,518
88660,347,518
88677,321,518
88692,332,518
88708,369,518
88723,366,518
88739,329,518
88755,317,518
88770,347,518
88785,361,518
88802,336,518
88817,312,518
88833,345,518
88848,397,518
88863,296,518
88880,306,518
88895,315,518
88910,353,518
88926,371,518
88942,352,518
88957,340,518
88973,349,518
88988,370,518
89005,371,518
89020,371,518
89035,361,518
89051,393,518
89067,425,518
89082,438,518
89098,422,518
89113,449,518
89128,482,518
89145,465,518
89160,383,518
89176,306,518
89191,292,518
89207,293,518
89223,282,518
89238,261,518
89253,264,518
89270,303,518
89285,301,518
89300,267,518
89316,268,518
89332,278,518
89348,311,518
89363,306,518
89378,284,518
89394,270,518
89410,299,518
89425,312,518
89441,293,518
89456,276,518
89473,291,518
89488,322,518
89503,315,518
89519,290,518
89535,289,518
89550,317,518
89566,335,518
89581,310,518
89596,291,518
89613,301,518
89628,331,518
89644,331,518
89659,307,518
89675,302,518
89691,326,518
89706,342,518
89721,330,518
89738,307,518
89753,321,518
89768,353,518
89784,353,518
89800,319,518
89816,311,518
89831,328,518
89846,347,518
89862,329,518
89878,326,518
89893,338,518
89909,312,518
89924,316,518
89940,319,518
89956,322,518
89971,344,518
89987,370,518
90003,362,518
90018,340,518
90034,348,518
90049,382,518
90065,395,518
90081,382,518
90096,378,518
90112,417,518
90127,460,518
90143,471,518
90159,467,518
90174,473,518
90189,474,518
90206,424,518
90221,335,518
90236,281,518
90252,284,518
90268,308,518
90284,301,518
90299,270,518
90314,273,518
90331,306,518
90346,317,518
90361,297,518
90377,279,518
90392,293,518
90408,317,518
90424,312,518
90439,281,518
90455,278,518
90471,305,518
90486,319,518
90502,297,518
90517,278,518
90533,293,518
90549,316,518
90564,312,518
90579,289,518
90595,282,518
90611,312,518
90627,327,518
90642,313,518
90657,288,518
90674,302,518
90689,334,518
90704,335,518
90720,309,518
90736,301,518
90752,317,518
90767,339,518
90782,325,518
90799,298,518
90814,309,518
90829,340,518
90845,344,518
90860,318,518
90876,311,518
90892,337,518
90907,354,518
90923,349,518
90939,311,518
90954,314,518
90970,347,518
90985,348,518
91001,378,518
91017,306,518
91032,279,518
91047,346,518
91064,362,518
91079,336,518
91095,334,518
91110,363,518
91125,375,518
91142,355,518
91157,343,518
91172,368,518
91188,397,518
91204,403,518
91219,387,518
91235,409,518
91250,457,518
91267,490,518
91282,481,518
91297,458,518
91313,432,518
91329,389,518
91344,328,518
91360,273,518
91375,256,518
91390,279,518
91407,300,518
91422,281,518
91438,261,518
91453,275,518
91469,304,518
91485,302,518
91500,274,518
91515,268,518
91532,291,518
91547,305,518
91563,290,518
91578,265,518
91593,275,518
91610,301,518
91625,303,518
91640,277,518
91656,270,518
91672,295,518
91687,319,518
91703,305,518
91718,279,518
91735,289,518
91750,320,518
91765,323,518
91781,296,518
91797,283,518
91812,307,518
91828,329,518
91843,322,518
91858,294,518
91875,304,518
91890,332,518
91906,338,518
91921,313,518
91937,302,518
91953,318,518
91968,346,518
91983,336,518
92000,316,518
92015,321,518
92030,352,518
92046,359,518
92062,334,518
92078,314,518
92093,328,518
92108,353,518
92124,378,518
92140,348,518
92155,262,518
92171,341,518
92186,362,518
92203,353,518
92218,332,518
92233,347,518
92249,371,518
92265,367,518
92280,339,518
92296,341,518
92311,378,518
92327,394,518
92343,389,518
92358,379,518
92374,411,518
92389,456,518
92405,471,518
92421,448,518
92436,418,518
92451,391,518
92468,354,518
92483,303,518
92498,258,518
92514,273,518
92530,300,518
92546,305,518
92561,281,518
92576,275,518
92592,298,518
92608,318,518
92623,305,518
92639,281,518
92654,283,518
92670,313,518
92686,316,518
92701,287,518
92717,277,518
92733,299,518
92748,318,518
92764,309,518
92779,283,518
92795,281,518
92811,318,518
92826,327,518
92841,306,518
92857,289,518
92873,306,518
92889,331,518
92904,329,518
92919,293,518
92936,298,518
92951,327,518
92966,338,518
92982,315,518
92998,296,518
93014,312,518
93029,338,518
93044,332,518
93061,304,518
93076,307,518
93091,338,518
93107,352,518
93122,329,518
93138,307,518
93154,315,518
93169,348,518
93185,345,518
93201,338,518
93216,337,518
93232,292,518
93247,337,518
93263,337,518
93279,327,518
93294,339,518
93309,366,518
93326,368,518
93341,337,518
93357,335,518
93372,364,518
93387,386,518
93404,369,518
93419,352,518
93434,378,518
93450,423,518
93466,446,518
93481,434,518
93497,429,518
93512,436,518
93529,407,518
93544,344,518
93559,281,518
93575,270,518
93590,297,518
93606,303,518
93622,279,518
93637,269,518
93652,293,518
93669,321,518
93684,311,518
93700,284,518
93715,288,518
93731,317,518
93747,325,518
93762,302,518
93777,284,518
93794,305,518
93809,327,518
93825,317,518
93840,295,518
93855,295,518
93872,320,518
93887,333,518
93902,313,518
93918,297,518
93934,312,518
93949,340,518
93965,333,518
93980,304,518
93997,303,518
94012,328,518
94027,343,518
94043,325,518
94059,306,518
94074,320,518
94090,347,518
94105,345,518
94120,314,518
94137,310,518
94152,334,518
94168,348,518
94183,337,518
94199,315,518
94215,320,518
94230,350,518
94245,343,518
94262,314,518
94277,306,518
94292,329,518
94308,385,518
94324,307,518
94340,279,518
94355,316,518
94370,352,518
94386,362,518
94402,337,518
94417,332,518
94433,357,518
94448,378,518
94465,368,518
94480,345,518
94495,354,518
94511,392,518
94527,408,518
94542,396,518
94558,396,518
94573,436,518
94588,470,518
94605,462,518
94620,411,518
94636,366,518
94651,349,518
94667,328,518
94683,291,518
94698,270,518
94713,284,518
94730,309,518
94745,304,518
94760,276,518
94776,279,518
94792,309,518
94808,316,518
94823,298,518
94838,280,518
94854,298,518
94870,317,518
94885,314,518
94901,289,518
94916,288,518
94932,315,518
94948,327,518
94963,309,518
94979,289,518
94995,302,518
95010,331,518
95026,325,518
95041,301,518
95057,292,518
95073,313,518
95088,330,518
95104,317,518
95119,292,518
95135,304,518
95151,331,518
95166,336,518
95181,308,518
95198,302,518
95213,323,518
95228,346,518
95244,327,518
95260,303,518
95276,310,518
95291,339,518
95306,342,518
95323,316,518
95338,306,518
95353,328,518
95369,354,518
95384,338,518
95400,310,518
95416,313,518
95431,338,518
95447,345,518
95463,346,518
95478,300,518
95494,296,518
95509,342,518
95525,344,518
95541,332,518
95556,333,518
95571,363,518
95587,374,518
95603,348,518
95619,332,518
95634,353,518
95649,380,518
95666,385,518
95681,367,518
95696,379,518
95712,425,518
95728,458,518
95744,451,518
95759,442,518
95774,436,518
95791,416,518
95806,359,518
95821,295,518
95837,273,518
95852,290,518
95868,311,518
95884,290,518
95899,268,518
95915,285,518
95931,313,518
95946,313,518
95962,286,518
95977,278,518
95993,302,518
96009,318,518
96024,303,518
96039,275,518
96056,282,518
96071,317,518
96087,317,518
96102,294,518
96117,286,518
96134,310,518
96149,331,518
96164,318,518
96180,291,518
96196,300,518
96211,329,518
96227,334,518
96242,309,518
96259,293,518
96274,315,518
96289,335,518
96305,329,518
96321,302,518
96336,308,518
96352,338,518
96367,344,518
96382,316,518
96399,301,518
96414,319,518
96430,345,518
96445,338,518
96461,311,518
96477,311,518
96492,338,518
96507,354,518
96524,330,518
96539,316,518
96555,325,518
96570,359,518
96585,341,518
96602,313,518
96617,312,518
96632,351,518
96648,367,518
96664,307,518
96679,287,518
96695,319,518
96710,364,518
96727,365,518
96742,338,518
96757,332,518
96773,362,518
96789,385,518
96804,367,518
96820,353,518
96835,369,518
96850,406,518
96867,419,518
96882,407,518
96898,419,518
96913,461,518
96929,486,518
96945,460,518
96960,391,518
96975,342,518
96992,323,518
97007,302,518
97022,264,518
97038,258,518
97054,284,518
97070,307,518
97085,295,518
97100,272,518
97116,280,518
97132,308,518
97147,310,518
97163,288,518
97178,271,518
97195,292,518
97210,315,518
97225,303,518
97241,276,518
97257,281,518
97272,309,518
97288,321,518
97303,299,518
97319,285,518
97335,300,518
97350,330,518
97366,319,518
97381,291,518
97397,290,518
97413,319,518
97428,334,518
97443,313,518
97460,298,518
97475,314,518
97490,341,518
97506,338,518
97522,311,518
97538,302,518
97553,333,518
97568,343,518
97584,329,518
97600,306,518
97615,318,518
97631,347,518
97646,347,518
97662,324,518
97678,319,518
97693,341,518
97709,366,518
97725,340,518
97740,313,518
97756,319,518
97771,345,518
97787,401,518
97803,315,518
97818,258,518
97833,321,518
97849,365,518
97865,360,518
97881,332,518
97896,348,518
97911,378,518
97928,385,518
97943,359,518
97958,353,518
97974,384,518
97990,410,518
98006,415,518
98021,399,518
98036,420,518
98053,470,518
98068,495,518
98083,478,518
98099,430,518
98114,394,518
98130,356,518
98146,306,518
98161,263,518
98177,258,518
98193,290,518
98208,303,518
98224,279,518
98239,267,518
98255,285,518
98271,311,518
98286,304,518
98301,278,518
98318,277,518
98333,303,518
98349,315,518
98364,301,518
98379,277,518
98396,295,518
98411,325,518
98426,318,518
98442,289,518
98458,283,518
98473,311,518
98489,327,518
98504,311,518
98521,289,518
98536,302,518
98551,333,518
98567,335,518
98582,308,518
98598,302,518
98614,323,518
98629,340,518
98644,325,518
98661,297,518
98676,308,518
98692,339,518
98707,343,518
98723,315,518
98739,305,518
98754,327,518
98769,349,518
98786,339,518
98801,312,518
98817,324,518
98832,346,518
98847,352,518
98864,322,518
98879,306,518
98894,328,518
98910,385,518
98926,353,518
98941,256,518
98957,281,518
98972,346,518
98989,373,518
99004,348,518
99019,336,518
99035,356,518
99051,387,518
99066,385,518
99082,359,518
99097,365,518
99112,401,518
99129,429,518
99144,426,518
99160,425,518
99175,465,518
99191,510,518
99207,507,518
99222,454,518
99237,398,518
99254,356,518
99269,321,518
99284,278,518
99300,252,518
99316,264,518
99332,293,518
99347,296,518
99362,268,518
99378,264,518
99394,290,518
99409,308,518
99425,291,518
99440,266,518
99457,269,518
99472,303,518
99487,298,518
99503,277,518
99519,266,518
99534,295,518
99550,315,518
99565,303,518
99580,279,518
99597,290,518
99612,317,518
99628,324,518
99643,302,518
99659,287,518
99675,311,518
99690,334,518
99705,322,518
99722,297,518
99737,301,518
99752,329,518
99768,336,518
99784,312,518
99800,297,518
99815,316,518
99830,343,518
99846,333,518
99862,305,518
99877,307,518
99893,339,518
99908,355,518
99924,335,518
99940,315,518
99955,329,518
99971,345,518
99987,340,518
100002,307,518
100019,345,518
100035,316,518
100052,260,518
100069,322,518
100085,346,518
100102,329,518
100119,324,518
100135,343,518
100152,368,518
100168,383,518
100186,374,518
100202,363,518
100218,368,518
100235,399,518
100252,442,518
100269,469,518
100285,474,518
100301,473,518
100319,468,518
100335,451,518
100352,400,518
100368,335,518
100385,282,518
100402,256,518
100418,251,518
100434,275,518
100452,299,518
100468,302,518
100485,288,518
100501,267,518
100518,271,518
100535,287,518
100551,307,518
100568,304,518
100585,283,518
100601,270,518
100618,275,518
100634,296,518
100652,316,518
100668,315,518
100684,298,518
100701,280,518
100718,283,518
100734,301,518
100751,320,518
100767,320,518
100785,304,518
100801,293,518
100817,294,518
100834,321,518
100851,338,518
100868,338,518
100884,325,518
100900,315,518
100918,312,518
100934,338,518
100951,346,518
100967,344,518
100984,324,518
101001,322,518
101017,354,518
101033,292,518
101051,331,518
101067,350,518
101084,345,518
101100,333,518
101117,344,518
101134,366,518
101150,380,518
101167,376,518
101184,362,518
101200,360,518
101217,382,518
101233,420,518
101251,454,518
101267,472,518
101283,467,518
101300,462,518
101317,442,518
101334,396,518
101350,350,518
101366,305,518
101384,267,518
101400,260,518
101416,273,518
101433,295,518
101450,311,518
101467,305,518
101483,284,518
101499,276,518
101517,286,518
101533,307,518
101550,315,518
101566,304,518
101583,279,518
101600,277,518
101616,283,518
101633,306,518
101650,318,518
101666,307,518
101683,289,518
101699,283,518
101716,293,518
101733,319,518
101749,328,518
101766,314,518
101783,295,518
101799,290,518
101816,306,518
101832,331,518
101850,341,518
101866,331,518
101882,308,518
101899,307,518
101916,327,518
101933,349,518
101949,351,518
101965,339,518
101983,311,518
101999,304,518
102016,320,518
102032,377,518
102049,348,518
102066,266,518
102082,287,518
102098,319,518
102116,339,518
102132,363,518
102149,372,518
102165,356,518
102182,345,518
102199,348,518
102215,371,518
102232,401,518
102249,411,518
102265,412,518
102282,409,518
102298,434,518
102316,469,518
102332,497,518
102348,463,518
102365,374,518
102382,296,518
102398,265,518
102415,274,518
102431,295,518
102449,295,518
102465,280,518
102481,265,518
102498,264,518
102515,287,518
102532,309,518
102548,312,518
102564,293,518
102582,273,518
102598,272,518
102615,295,518
102631,317,518
102648,316,518
102665,300,518
102681,281,518
102697,287,518
102715,310,518
102731,325,518
102748,328,518
102764,305,518
102781,291,518
102798,296,518
102814,318,518
102831,331,518
102848,330,518
102864,308,518
102881,294,518
102897,301,518
102915,324,518
102931,344,518
102947,339,518
102964,318,518
102981,305,518
102998,309,518
103014,331,518
103030,343,518
103048,341,518
103064,368,518
103080,288,518
103097,263,518
103114,326,518
103131,367,518
103147,362,518
103163,343,518
103181,332,518
103197,344,518
103214,377,518
103230,398,518
103247,397,518
103264,389,518
103280,395,518
103297,425,518
103314,478,518
103330,507,518
103347,507,518
103363,464,518
103380,392,518
103397,333,518
103413,307,518
103430,300,518
103447,288,518
103463,270,518
103480,262,518
103496,276,518
103514,301,518
103530,310,518
103546,301,518
103563,282,518
103580,271,518
103597,282,518
103613,304,518
103629,308,518
103647,302,518
103663,274,518
103680,275,518
103696,291,518
103713,315,518
103730,329,518
103746,310,518
103762,292,518
103780,287,518
103796,303,518
103813,323,518
103829,333,518
103846,320,518
103863,305,518
103879,298,518
103896,314,518
103913,331,518
103929,342,518
103946,325,518
103962,304,518
103980,302,518
103996,328,518
104012,348,518
104029,356,518
104046,336,518
104062,320,518
104079,310,518
104095,320,518
104113,354,518
104129,378,518
104145,355,518
104162,260,518
104179,279,518
104196,342,518
104212,372,518
104228,371,518
104246,359,518
104262,343,518
104279,350,518
104295,378,518
104312,390,518
104329,409,518
104345,397,518
104361,394,518
104379,415,518
104395,446,518
104412,499,518
104428,506,518
104445,460,518
104462,375,518
104478,310,518
104495,291,518
104512,295,518
104528,297,518
104545,273,518
104561,270,518
104579,271,518
104595,384,518
104611,549,518
104628,604,518
104645,617,518
104662,613,518
104678,607,518
104694,619,518
104712,615,518
104728,599,518
104744,569,518
104761,548,518
104778,537,518
104795,541,518
104811,552,518
104827,535,518
104845,513,518
104861,500,518
104878,498,518
104894,504,518
104911,498,518
104928,495,518
104944,450,518
104961,437,518
104978,427,518
104994,437,518
105011,442,518
105027,417,518
105044,396,518
105061,366,518
105077,368,518
105094,371,518
105111,372,518
105127,363,518
105144,323,518
105160,314,518
105178,310,518
105194,320,518
105210,323,518
105227,307,518
105244,331,518
105261,264,518
105277,197,518
105293,274,518
105311,312,518
105327,295,518
105344,286,518
105360,271,518
105377,291,518
105394,312,518
105410,319,518
105426,326,518
105444,305,518
105460,302,518
105477,333,518
105493,381,518
105510,405,518
105527,409,518
105543,394,518
105560,344,518
105577,287,518
105593,244,518
105610,227,518
105626,204,518
105644,185,518
105660,178,518
105676,194,518
105693,235,518
105710,245,518
105726,231,518
105743,205,518
105759,206,518
105777,229,518
105793,252,518
105809,251,518
105826,234,518
105843,220,518
105860,228,518
105876,238,518
105892,258,518
105910,267,518
105926,255,518
105943,237,518
105959,239,518
105976,256,518
105993,288,518
106009,288,518
106025,271,518
106043,251,518
106059,255,518
106076,276,518
106092,305,518
106109,306,518
106126,293,518
106142,280,518
106159,275,518
106176,291,518
106192,317,518
106209,319,518
106225,358,518
106243,266,518
106259,253,518
106275,302,518
106292,345,518
106309,346,518
106326,327,518
106342,314,518
106358,324,518
106376,351,518
106392,374,518
106408,378,518
106425,368,518
106442,362,518
106459,385,518
106475,432,518
106491,467,518
106509,477,518
106525,437,518
106542,362,518
106558,305,518
106575,288,518
106592,291,518
106608,284,518
106625,259,518
106642,251,518
106658,266,518
106675,293,518
106691,313,518
106708,311,518
106725,286,518
106741,272,518
106758,284,518
106775,305,518
106791,320,518
106808,312,518
106824,293,518
106842,281,518
106858,293,518
106874,320,518
106891,332,518
106908,326,518
106925,303,518
106941,289,518
106957,299,518
106975,320,518
106991,334,518
107008,330,518
107024,308,518
107041,299,518
107058,306,518
107074,330,518
107090,341,518
107108,336,518
107124,316,518
107141,308,518
107157,319,518
107174,347,518
107191,357,518
107207,350,518
107224,320,518
107241,306,518
107257,313,518
107274,340,518
107290,391,518
107308,320,518
107324,285,518
107340,303,518
107357,334,518
107374,363,518
107390,371,518
107407,364,518
107423,349,518
107441,344,518
107457,360,518
107473,384,518
107490,405,518
107507,403,518
107524,405,518
107540,419,518
107556,455,518
107574,494,518
107590,484,518
107607,414,518
107623,323,518
107640,274,518
107657,271,518
107673,294,518
107689,296,518
107707,286,518
107723,268,518
107740,269,518
107756,285,518
107773,306,518
107790,309,518
107806,292,518
107823,275,518
107840,274,518
107856,286,518
107873,310,518
107889,317,518
107907,303,518
107923,280,518
107939,281,518
107956,298,518
107973,323,518
107990,326,518
108006,310,518
108022,293,518
108040,291,518
108056,312,518
108072,330,518
108089,333,518
108106,317,518
108123,302,518
108139,300,518
108155,319,518
108173,343,518
108189,341,518
108206,332,518
108222,317,518
108239,313,518
108256,336,518
108272,345,518
108289,346,518
108306,328,518
108322,340,518
108339,309,518
108355,287,518
108372,347,518
108389,360,518
108405,347,518
108422,337,518
108439,343,518
108455,361,518
108472,382,518
108488,381,518
108506,368,518
108522,360,518
108538,378,518
108555,413,518
108572,450,518
108589,467,518
108605,464,518
108621,453,518
108639,426,518
108655,384,518
108672,340,518
108688,309,518
108705,275,518
108722,260,518
108738,271,518
108754,297,518
108772,309,518
108788,306,518
108805,288,518
108821,279,518
108838,285,518
108855,300,518
108871,318,518
108888,307,518
108905,285,518
108921,277,518
108938,282,518
108954,306,518
108972,321,518
108988,310,518
109004,289,518
109021,276,518
109038,289,518
109054,308,518
109071,328,518
109087,317,518
109105,296,518
109121,286,518
109137,298,518
109154,322,518
109171,335,518
109188,325,518
109204,303,518
109220,295,518
109238,306,518
109254,328,518
109271,343,518
109287,335,518
109304,311,518
109321,304,518
109337,319,518
109353,345,518
109371,356,518
109387,336,518
109404,317,518
109420,298,518
109437,308,518
109454,333,518
109470,365,518
109487,341,518
109504,270,518
109520,284,518
109537,322,518
109553,354,518
109571,361,518
109587,353,518
109603,339,518
109620,335,518
109637,355,518
109654,385,518
109670,399,518
109686,394,518
109704,390,518
109720,409,518
109736,445,518
109753,489,518
109770,498,518
109787,454,518
109803,371,518
109819,311,518
109837,290,518
109853,291,518
109870,295,518
109886,280,518
109903,265,518
109920,265,518
109936,280,518
109953,304,518
109970,309,518
109986,294,518
110003,270,518
110019,272,518
110036,289,518
110053,312,518
110069,315,518
110086,296,518
110103,283,518
110119,282,518
110136,302,518
110152,326,518
110170,325,518
110186,310,518
110202,291,518
110219,292,518
110236,306,518
110253,333,518
110269,328,518
110285,307,518
110303,289,518
110319,298,518
110336,319,518
110352,338,518
110369,337,518
110386,317,518
110402,304,518
110418,304,518
110436,321,518
110452,336,518
110469,331,518
110485,312,518
110502,299,518
110519,302,518
110535,329,518
110552,349,518
110569,350,518
110585,324,518
110602,305,518
110618,307,518
110636,328,518
110652,343,518
110668,395,518
110685,307,518
110702,246,518
110718,298,518
110735,348,518
110751,361,518
110769,356,518
110785,341,518
110801,332,518
110818,340,518
110835,371,518
110852,388,518
110868,397,518
110884,391,518
110902,399,518
110918,428,518
110935,470,518
110951,501,518
110968,492,518
110985,428,518
111001,348,518
111017,298,518
111035,291,518
111051,293,518
111068,285,518
111084,262,518
111101,258,518
111118,270,518
111134,299,518
111151,313,518
111168,304,518
111184,286,518
111201,271,518
111217,282,518
111235,300,518
111251,308,518
111267,298,518
111284,275,518
111301,266,518
111318,278,518
111334,303,518
111350,310,518
111368,302,518
111384,277,518
111400,269,518
111417,293,518
111434,322,518
111451,327,518
111467,321,518
111483,298,518
111501,294,518
111517,304,518
111534,329,518
111550,336,518
111567,324,518
111584,303,518
111600,288,518
111617,309,518
111634,322,518
111650,338,518
111667,332,518
111683,306,518
111700,305,518
111717,308,518
111733,341,518
111750,348,518
111767,344,518
111783,316,518
111800,353,518
111816,293,518
111834,327,518
111850,354,518
111866,349,518
111883,326,518
111900,344,518
111917,366,518
111933,394,518
111949,401,518
111967,397,518
111983,380,518
112000,381,518
112016,405,518
112033,446,518
112050,473,518
112066,483,518
112082,463,518
112100,453,518
112116,419,518
112133,386,518
112149,350,518
112166,322,518
112183,298,518
112199,283,518
112216,308,518
112233,327,518
112249,340,518
112266,320,518
112282,298,518
112300,282,518
112316,296,518
112332,302,518
112349,299,518
112366,272,518
112382,263,518
112399,262,518
112415,284,518
112433,298,518
112449,301,518
112465,285,518
112482,270,518
112499,273,518
112516,293,518
112532,307,518
112548,295,518
112566,263,518
112582,241,518
112599,253,518
112615,294,518
112632,327,518
112649,321,518
112665,285,518
112681,258,518
112699,305,518
112715,309,518
112732,299,518
112748,295,518
112765,274,518
112782,264,518
112798,278,518
112815,306,518
112832,366,518
112848,291,518
112865,264,518
112881,278,518
112899,305,518
112915,334,518
112931,352,518
112948,343,518
112965,329,518
112982,326,518
112998,347,518
113014,386,518
113032,412,518
113048,414,518
113064,410,518
113081,416,518
113098,441,518
113115,474,518
113131,469,518
113147,410,518
113165,331,518
113181,287,518
113198,284,518
113214,306,518
113231,319,518
113248,310,518
113264,291,518
113281,281,518
113298,294,518
113314,319,518
113331,330,518
113347,318,518
113364,291,518
113381,283,518
113397,298,518
113414,327,518
113431,329,518
113447,311,518
113464,287,518
113480,283,518
113498,295,518
113514,323,518
113530,336,518
113547,323,518
113564,305,518
113581,300,518
113597,329,518
113613,356,518
113631,365,518
113647,342,518
113664,316,518
113680,277,518
113697,281,518
113714,287,518
113730,258,518
113746,211,518
113764,175,518
113780,149,518
113797,165,518
113813,182,518
113830,203,518
113847,193,518
113863,199,518
113880,130,518
113897,173,518
113913,216,518
113930,239,518
113946,237,518
113964,231,518
113980,229,518
113996,264,518
114013,284,518
114030,279,518
114046,276,518
114063,247,518
114079,269,518
114097,306,518
114113,355,518
114129,393,518
114146,393,518
114163,349,518
114180,294,518
114196,243,518
114212,252,518
114230,218,518
114246,198,518
114263,178,518
114279,191,518
114296,221,518
114313,249,518
114329,271,518
114345,256,518
114363,248,518
114379,258,518
114396,280,518
114412,320,518
114429,322,518
114446,307,518
114462,285,518
114479,288,518
114496,347,518
114512,371,518
114529,365,518
114545,337,518
114563,322,518
114579,327,518
114595,342,518
114612,369,518
114629,376,518
114646,358,518
114662,348,518
114678,356,518
114696,383,518
114712,409,518
114728,405,518
114745,371,518
114762,358,518
114779,355,518
114795,377,518
114811,393,518
114829,392,518
114845,392,518
114862,296,518
114878,337,518
114895,373,518
114912,404,518
114928,395,518
114945,372,518
114962,366,518
114978,382,518
114995,412,518
115011,428,518
115028,426,518
115045,409,518
115061,411,518
115078,438,518
115095,485,518
115111,520,518
115128,515,518
115144,464,518
115162,392,518
115178,341,518
115194,328,518
115211,328,518
115228,314,518
115245,298,518
115261,296,518
115277,317,518
115295,347,518
115311,360,518
115328,347,518
115344,313,518
115361,293,518
115378,303,518
115394,326,518
115410,336,518
115428,327,518
115444,303,518
115461,292,518
115477,305,518
115494,326,518
115511,336,518
115527,324,518
115544,304,518
115561,301,518
115577,318,518
115594,344,518
115610,351,518
115628,333,518
115644,311,518
115660,307,518
115677,323,518
115694,348,518
115710,354,518
115727,342,518
115743,321,518
115761,321,518
115777,332,518
115793,354,518
115810,350,518
115827,332,518
115844,303,518
115860,355,518
115876,317,518
115894,297,518
115910,357,518
115927,361,518
115943,345,518
115960,342,518
115977,356,518
115993,378,518
116009,387,518
116027,378,518
116043,364,518
116060,373,518
116076,407,518
116093,450,518
116110,477,518
116126,480,518
116143,472,518
116160,465,518
116176,440,518
116193,390,518
116209,336,518
116227,292,518
116243,265,518
116259,269,518
116276,292,518
116293,317,518
116310,334,518
116326,320,518
116342,223,518
116360,171,518
116376,214,518
116392,272,518
116409,272,518
116426,243,518
116443,221,518
116459,241,518
116475,280,518
116493,317,518
116509,325,518
116526,314,518
116542,301,518
116559,309,518
116576,328,518
116592,345,518
116609,342,518
116626,326,518
116642,313,518
116659,319,518
116675,341,518
116692,351,518
116709,347,518
116725,329,518
116742,316,518
116759,327,518
116775,358,518
116792,369,518
116808,373,518
116826,388,518
116842,368,518
116858,363,518
116875,349,518
116892,420,518
116909,333,518
116925,265,518
116941,294,518
116959,325,518
116975,339,518
116992,355,518
117008,351,518
117025,330,518
117042,320,518
117058,336,518
117074,357,518
117092,380,518
117108,402,518
117125,407,518
117141,425,518
117158,453,518
117175,496,518
117191,499,518
117208,430,518
117225,338,518
117241,273,518
117258,257,518
117274,271,518
117292,282,518
117308,275,518
117324,264,518
117341,255,518
117358,287,518
117374,308,518
117391,314,518
117407,304,518
117425,275,518
117441,253,518
117457,265,518
117474,293,518
117491,312,518
117508,301,518
117524,274,518
117540,271,518
117558,288,518
117574,309,518
117591,321,518
117607,309,518
117624,291,518
117641,284,518
117657,301,518
117673,319,518
117691,331,518
117707,327,518
117724,305,518
117740,295,518
117757,310,518
117774,336,518
117790,341,518
117807,331,518
117824,312,518
117840,306,518
117857,323,518
117873,350,518
117891,360,518
117907,345,518
117923,319,518
117940,308,518
117957,319,518
117974,341,518
117990,400,518
118006,349,518
118024,255,518
118040,304,518
118056,343,518
118073,373,518
118090,377,518
118107,361,518
118123,340,518
118139,339,518
118157,369,518
118173,399,518
118190,406,518
118206,408,518
118223,403,518
118240,440,518
118256,478,518
118273,513,518
118290,509,518
118306,444,518
118323,349,518
118339,288,518
118356,276,518
118373,287,518
118389,293,518
118406,285,518
118423,269,518
118439,274,518
118456,293,518
118472,308,518
118490,312,518
118506,296,518
118522,278,518
118539,283,518
118556,301,518
118573,320,518
118589,316,518
118605,291,518
118623,268,518
118639,274,518
118656,295,518
118672,322,518
118689,321,518
118706,305,518
118722,284,518
118738,282,518
118756,306,518
118772,326,518
118789,324,518
118805,307,518
118822,291,518
118839,298,518
118855,319,518
118872,336,518
118889,332,518
118905,315,518
118922,300,518
118938,303,518
118956,329,518
118972,343,518
118988,349,518
119005,333,518
119022,311,518
119038,318,518
119055,330,518
119071,342,518
119089,338,518
119105,360,518
119121,330,518
119138,262,518
119155,317,518
119172,356,518
119188,356,518
119204,336,518
119222,328,518
119238,343,518
119255,372,518
119271,392,518
119288,388,518
119305,379,518
119321,381,518
119337,405,518
119355,456,518
119371,489,518
119388,510,518
119404,484,518
119421,440,518
119438,353,518
119454,281,518
119471,288,518
119488,267,518
119504,246,518
119521,242,518
119537,258,518
119555,284,518
119571,285,518
119587,280,518
119604,266,518
119621,262,518
119638,272,518
119654,296,518
119670,313,518
119688,288,518
119704,264,518
119720,251,518
119737,265,518
119754,282,518
119771,299,518
119787,296,518
119803,283,518
119821,274,518
119837,288,518
119854,303,518
119870,316,518
119887,323,518
119904,304,518
119920,294,518
119937,315,518
119954,355,518
119970,379,518
119987,376,518
120003,359,518
120020,339,518
120037,347,518
120053,365,518
120070,359,518
120087,342,518
120103,320,518
120120,323,518
120136,345,518
120154,413,518
120170,341,518
120186,279,518
120203,293,518
120220,305,518
120237,302,518
120253,325,518
120269,326,518
120287,311,518
120303,292,518
120320,298,518
120336,315,518
120353,353,518
120370,382,518
120386,409,518
120402,430,518
120420,471,518
120436,509,518
120453,513,518
120469,446,518
120486,360,518
120503,298,518
120519,276,518
120536,285,518
120553,304,518
120569,304,518
120586,301,518
120602,287,518
120620,293,518
120636,316,518
120652,330,518
120669,339,518
120686,317,518
120702,305,518
120719,301,518
120735,318,518
120753,332,518
120769,329,518
120785,310,518
120802,298,518
120819,299,518
120836,333,518
120852,343,518
120868,343,518
120886,325,518
120902,313,518
120919,316,518
120935,332,518
120952,345,518
120969,339,518
120985,324,518
121001,312,518
121019,322,518
121035,340,518
121052,339,518
121068,346,518
121085,318,518
121102,302,518
121118,307,518
121135,346,518
121152,377,518
121168,291,518
121185,320,518
121201,310,518
121219,331,518
121235,349,518
121251,373,518
121268,359,518
121285,348,518
121302,339,518
121318,356,518
121334,382,518
121352,403,518
121368,416,518
121384,418,518
121401,433,518
121418,462,518
121435,480,518
121451,465,518
121467,389,518
121485,303,518
121501,265,518
121518,258,518
121534,274,518
121551,293,518
121568,292,518
121584,274,518
121601,270,518
121618,279,518
121634,298,518
121651,307,518
121667,300,518
121684,280,518
121701,272,518
121717,278,518
121734,302,518
121751,311,518
121767,303,518
121784,286,518
121800,281,518
121818,295,518
121834,315,518
121850,325,518
121867,314,518
121884,299,518
121901,294,518
121917,304,518
121933,323,518
121951,333,518
121967,336,518
121984,304,518
122000,295,518
122017,304,518
122034,328,518
122050,336,518
122066,324,518
122084,308,518
122100,308,518
122117,325,518
122133,343,518
122150,348,518
122167,330,518
122183,313,518
122200,307,518
122217,364,518
122233,346,518
122250,299,518
122266,327,518
122284,332,518
122300,333,518
122316,349,518
122333,372,518
122350,374,518
122366,366,518
122383,352,518
122399,353,518
122417,379,518
122433,409,518
122449,430,518
122466,439,518
122483,449,518
122500,464,518
122516,480,518
122532,449,518
122550,375,518
122566,307,518
122583,261,518
122599,255,518
122616,274,518
122633,288,518
122649,298,518
122665,286,518
122683,273,518
122699,275,518
122716,293,518
122732,312,518
122749,310,518
122766,297,518
122782,282,518
122799,284,518
122816,304,518
122832,323,518
122849,322,518
122865,307,518
122883,288,518
122899,294,518
122915,310,518
122932,329,518
122949,325,518
122966,309,518
122982,298,518
122998,298,518
123016,316,518
123032,331,518
123048,326,518
123065,313,518
123082,298,518
123099,301,518
123115,326,518
123131,336,518
123149,333,518
123165,319,518
123182,305,518
123198,310,518
123215,330,518
123232,349,518
123248,341,518
123265,324,518
123282,316,518
123298,323,518
123315,344,518
123331,353,518
123348,346,518
123365,322,518
123381,313,518
123398,353,518
123415,343,518
123431,304,518
123448,326,518
123464,334,518
123482,330,518
123498,336,518
123514,359,518
123531,377,518
123548,376,518
123565,366,518
123581,359,518
123597,374,518
123615,405,518
123631,438,518
123648,450,518
123664,457,518
123681,470,518
123698,484,518
123714,472,518
123730,408,518
123748,326,518
123764,267,518
123781,249,518
123797,255,518
123814,275,518
123831,283,518
123847,275,518
123864,257,518
123881,247,518
123897,267,518
123914,292,518
123930,303,518
123948,291,518
123964,272,518
123980,274,518
123997,284,518
124014,308,518
124030,316,518
124047,306,518
124063,282,518
124081,283,518
124097,297,518
124113,317,518
124130,323,518
124147,315,518
124164,296,518
124180,297,518
124196,310,518
124214,330,518
124230,334,518
124247,328,518
124263,304,518
124280,307,518
124297,317,518
124313,339,518
124329,340,518
124347,327,518
124363,309,518
124380,307,518
124396,323,518
124413,345,518
124430,356,518
124446,341,518
124463,324,518
124480,321,518
124496,334,518
124513,348,518
124529,349,518
124547,335,518
124563,374,518
124579,311,518
124596,293,518
124613,343,518
124630,362,518
124646,348,518
124662,338,518
124680,337,518
124696,356,518
124712,379,518
124729,383,518
124746,379,518
124763,369,518
124779,382,518
124795,414,518
124813,449,518
124829,471,518
124846,473,518
124862,453,518
124879,407,518
124896,357,518
124912,323,518
124929,299,518
124946,278,518
124962,263,518
124979,268,518
124995,288,518
125012,304,518
125029,303,518
125045,290,518
125062,277,518
125079,282,518
125095,298,518
125112,312,518
125128,312,518
125146,293,518
125162,281,518
125178,287,518
125195,311,518
125212,324,518
125229,322,518
125245,303,518
125261,285,518
125279,292,518
125295,313,518
125312,331,518
125328,330,518
125345,310,518
125362,296,518
125378,301,518
125394,325,518
125412,340,518
125428,335,518
125445,315,518
125461,307,518
125478,314,518
125495,335,518
125511,347,518
125528,341,518
125545,314,518
125561,303,518
125578,307,518
125594,371,518
125612,332,518
125628,283,518
125644,311,518
125661,321,518
125678,332,518
125694,354,518
125711,367,518
125727,364,518
125745,349,518
125761,341,518
125777,359,518
125794,385,518
125811,406,518
125828,417,518
125844,424,518
125860,439,518
125878,471,518
125894,491,518
125911,454,518
125927,373,518
125944,295,518
125961,266,518
125977,267,518
125993,288,518
126011,298,518
126027,290,518
126044,274,518
126060,272,518
126077,280,518
126094,303,518
126110,309,518
126127,294,518
126144,274,518
126160,275,518
126177,290,518
126193,312,518
126211,319,518
126227,310,518
126243,289,518
126260,290,518
126277,303,518
126294,328,518
126310,332,518
126326,324,518
126344,304,518
126360,304,518
126376,319,518
126393,340,518
126410,344,518
126427,331,518
126443,313,518
126459,310,518
126477,326,518
126493,345,518
126510,347,518
126526,330,518
126543,313,518
126560,314,518
126576,332,518
126593,352,518
126610,352,518
126626,342,518
126643,325,518
126659,326,518
126676,336,518
126693,351,518
126709,350,518
126726,332,518
126743,315,518
126759,354,518
126776,330,518
126792,301,518
126810,333,518
126826,346,518
126842,333,518
126859,334,518
126876,352,518
126893,370,518
126909,373,518
126925,364,518
126943,356,518
126959,366,518
126976,395,518
126992,429,518
127009,448,518
127026,451,518
127042,454,518
127058,466,518
127076,452,518
127092,399,518
127109,329,518
127125,273,518
127142,244,518
127159,240,518
127175,264,518
127192,284,518
127209,278,518
127225,261,518
127242,243,518
127258,251,518
127276,274,518
127292,295,518
127308,292,518
127325,279,518
127342,266,518
127358,274,518
127375,297,518
127391,312,518
127409,306,518
127425,286,518
127441,276,518
127458,286,518
127475,309,518
127492,324,518
127508,320,518
127524,302,518
127542,294,518
127558,302,518
127575,324,518
127591,335,518
127608,331,518
127625,308,518
127641,301,518
127657,310,518
127675,332,518
127691,343,518
127708,333,518
127724,312,518
127741,305,518
127758,314,518
127774,337,518
127791,350,518
127808,344,518
127824,322,518
127841,312,518
127857,316,518
127875,334,518
127891,346,518
127907,385,518
127924,330,518
127941,259,518
127958,310,518
127974,352,518
127990,363,518
128008,354,518
128024,339,518
128040,336,518
128057,352,518
128074,375,518
128091,389,518
128107,386,518
128123,382,518
128141,392,518
128157,428,518
128174,469,518
128190,490,518
128207,479,518
128224,425,518
128240,355,518
128257,315,518
128274,304,518
128290,296,518
128307,285,518
128323,269,518
128340,268,518
128357,285,518
128373,307,518
128390,316,518
128407,298,518
128423,287,518
128440,281,518
128456,296,518
128474,311,518
128490,316,518
128506,298,518
128523,281,518
128540,284,518
128557,299,518
128573,320,518
128589,321,518
128607,308,518
128623,293,518
128640,295,518
128656,312,518
128673,332,518
128690,332,518
128706,315,518
128722,299,518
128740,301,518
128756,316,518
128773,334,518
128789,334,518
128806,319,518
128823,301,518
128839,304,518
128856,327,518
128873,348,518
128889,347,518
128906,330,518
128922,318,518
128940,314,518
128956,326,518
128972,341,518
128989,361,518
129006,342,518
129022,269,518
129039,299,518
129055,337,518
129073,364,518
129089,363,518
129105,345,518
129122,333,518
129139,338,518
129156,363,518
129172,385,518
129188,386,518
129206,376,518
129222,380,518
129239,410,518
129255,456,518
129272,487,518
129289,492,518
129305,446,518
129321,371,518
129339,312,518
129355,294,518
129372,294,518
129388,286,518
129405,270,518
129422,260,518
129438,271,518
129455,291,518
129472,303,518
129488,300,518
129505,280,518
129521,270,518
129539,276,518
129555,303,518
129571,313,518
129588,303,518
129605,286,518
129622,278,518
129638,287,518
129654,310,518
129672,322,518
129688,316,518
129704,298,518
129721,287,518
129738,300,518
129755,321,518
129771,331,518
129787,321,518
129805,302,518
129821,296,518
129838,307,518
129854,329,518
129871,334,518
129888,327,518
129904,309,518
129921,302,518
129938,315,518
129954,334,518
129971,343,518
129987,331,518
130004,315,518
130021,307,518
130037,320,518
130054,339,518
130071,349,518
130087,342,518
130104,327,518
130120,315,518
130138,331,518
130154,343,518
130170,346,518
130187,333,518
130204,317,518
130221,348,518
130237,319,518
130253,307,518
130271,345,518
130287,349,518
130304,331,518
130320,330,518
130337,347,518
130354,367,518
130370,371,518
130386,357,518
130404,348,518
130420,353,518
130437,386,518
130453,426,518
130470,454,518
130487,463,518
130503,463,518
130520,457,518
130537,420,518
130553,365,518
130570,318,518
130586,278,518
130604,256,518
130620,260,518
130636,280,518
130653,303,518
130670,306,518
130686,291,518
130703,276,518
130719,275,518
130737,298,518
130753,315,518
130769,309,518
130786,293,518
130803,276,518
130820,283,518
130836,304,518
130852,324,518
130870,326,518
130886,308,518
130903,295,518
130919,301,518
130936,322,518
130953,337,518
130969,335,518
130985,315,518
131003,299,518
131019,304,518
131036,322,518
131052,338,518
131069,335,518
131086,319,518
131102,307,518
131119,315,518
131136,338,518
131152,349,518
131169,344,518
131185,331,518
131203,323,518
131219,324,518
131235,346,518
131252,350,518
131269,342,518
131286,326,518
131302,345,518
131318,357,518
131336,283,518
131352,339,518
131368,343,518
131385,337,518
131402,327,518
131419,336,518
131435,359,518
131451,373,518
131469,371,518
131485,355,518
131502,359,518
131518,379,518
131535,416,518
131552,446,518
131568,461,518
131585,462,518
131602,457,518
131618,434,518
131635,390,518
131651,335,518
131668,294,518
131685,266,518
131701,258,518
131718,273,518
131735,293,518
131751,305,518
131768,299,518
131784,281,518
131802,275,518
131818,283,518
131834,303,518
131851,312,518
131868,300,518
131885,278,518
131901,278,518
131917,290,518
131935,305,518
131951,316,518
131968,306,518
131984,288,518
132001,284,518
132018,297,518
132034,318,518
132050,325,518
132068,315,518
132084,296,518
132101,295,518
132117,304,518
132134,327,518
132151,330,518
132167,324,518
132184,304,518
132201,302,518
132217,317,518
132234,342,518
132250,346,518
132268,334,518
132284,320,518
132300,312,518
132317,323,518
132334,342,518
132350,344,518
132367,381,518
132383,314,518
132401,276,518
132417,320,518
132433,358,518
132450,360,518
132467,345,518
132484,330,518
132500,334,518
132516,353,518
132534,377,518
132550,388,518
132567,381,518
132583,381,518
132600,405,518
132617,444,518
132633,483,518
132649,500,518
132667,471,518
132683,400,518
132700,333,518
132716,302,518
132733,294,518
132750,284,518
132766,265,518
132783,257,518
132800,266,518
132816,286,518
132833,304,518
132849,303,518
132867,289,518
132883,276,518
132899,280,518
132916,299,518
132933,311,518
132950,307,518
132966,291,518
132982,277,518
133000,281,518
133016,303,518
133032,321,518
133049,319,518
133066,302,518
133083,289,518
133099,297,518
133115,318,518
133133,331,518
133149,327,518
133166,306,518
133182,294,518
133199,302,518
133216,329,518
133232,339,518
133249,335,518
133266,317,518
133282,304,518
133299,310,518
133315,332,518
133332,345,518
133349,342,518
133365,321,518
133382,313,518
133399,320,518
133415,339,518
133432,354,518
133448,351,518
133466,335,518
133482,319,518
133498,329,518
133515,341,518
133532,352,518
133549,337,518
133565,354,518
