21,372,518
32,360,518
45,367,518
56,376,518
68,366,518
79,393,518
92,486,518
103,556,518
115,350,518
126,343,518
139,408,518
150,396,518
162,407,518
175,406,518
186,406,518
198,422,518
209,412,518
222,426,518
233,423,518
245,423,518
257,434,518
269,423,518
281,442,518
292,435,518
305,446,518
316,459,518
328,454,518
339,475,518
352,462,518
363,470,518
375,463,518
388,434,518
399,430,518
411,400,518
422,402,518
435,396,518
446,388,518
458,400,518
471,385,518
485,391,518
498,402,518
512,386,518
525,388,518
538,400,518
552,387,518
566,384,518
579,396,518
592,382,518
606,376,518
620,390,518
633,375,518
647,374,518
660,384,518
674,377,518
688,365,518
701,379,518
714,370,518
728,363,518
742,377,518
755,373,518
769,360,518
782,374,518
795,371,518
809,358,518
823,367,518
836,370,518
849,352,518
863,363,518
877,364,518
890,349,518
904,352,518
917,360,518
930,343,518
945,344,518
958,351,518
971,335,518
985,347,518
998,351,518
1012,334,518
1027,330,518
1041,344,518
1055,338,518
1070,345,518
1085,487,518
1099,333,518
1114,286,517
1128,323,518
1143,330,518
1158,339,518
1172,327,518
1186,325,517
1201,338,518
1216,340,518
1230,329,518
1245,335,518
1259,348,518
1274,344,518
1289,337,518
1303,356,518
1317,370,518
1332,365,518
1347,358,518
1361,363,518
1376,341,518
1390,304,518
1404,293,518
1420,307,518
1434,299,518
1448,287,518
1463,301,518
1478,306,518
1492,295,518
1507,289,518
1521,304,518
1536,306,518
1551,292,518
1565,296,518
1580,304,518
1594,299,518
1609,290,517
1624,300,518
1638,311,518
1652,297,518
1667,294,517
1682,304,518
1696,306,518
1711,293,517
1725,296,518
1740,309,517
1755,302,518
1769,292,518
1783,298,518
1798,307,517
1813,294,518
1827,291,518
1842,308,518
1856,311,517
1870,297,518
1886,299,517
1900,314,518
1914,312,518
1929,299,518
1944,304,518
1958,311,518
1973,299,518
1987,305,518
2001,309,518
2017,314,518
2031,301,518
2045,299,518
2060,313,518
2075,389,517
2089,444,518
2104,236,518
2118,299,518
2132,311,518
2148,301,518
2162,315,518
2177,324,518
2191,307,517
2206,310,518
2221,324,518
2235,326,518
2249,312,518
2264,323,518
2279,334,518
2293,331,518
2308,331,517
2322,351,518
2336,358,518
2352,346,518
2366,330,518
2380,319,518
2395,296,517
2410,271,518
2424,275,518
2439,285,518
2453,280,517
2467,273,518
2483,288,518
2497,297,518
2511,284,518
2526,282,518
2541,301,518
2555,300,518
2570,288,517
2584,296,517
2598,309,518
2614,301,518
2628,295,518
2642,308,517
2657,319,517
2672,308,517
2686,307,518
2701,323,517
2715,327,518
2729,319,517
2745,326,518
2759,344,518
2774,339,517
2788,331,518
2802,347,518
2818,357,518
2832,343,518
2846,343,518
2861,361,518
2876,363,517
2890,347,518
2905,356,518
2919,374,518
2933,367,518
2949,351,518
2963,363,518
2977,374,518
2992,370,518
3007,364,518
3021,377,518
3036,379,518
3050,365,518
3064,366,517
3080,409,518
3094,536,518
3108,343,518
3123,334,518
3138,383,518
3152,365,518
3167,363,518
3181,378,518
3195,381,518
3211,364,518
3225,368,518
3239,381,518
3254,376,518
3268,365,518
3283,376,517
3298,396,518
3312,386,518
3326,388,518
3342,403,518
3356,403,518
3371,382,517
3385,363,518
3399,358,518
3415,340,518
3429,323,518
3443,329,518
3458,341,518
3473,334,518
3487,327,518
3502,343,518
3516,349,518
3530,329,518
3546,326,518
3560,340,518
3574,333,518
3589,317,518
3604,329,518
3618,339,518
3633,327,517
3647,322,518
3661,333,517
3677,339,518
3691,324,518
3705,320,518
3720,336,518
3734,332,518
3749,317,518
3764,324,518
3778,339,518
3792,327,518
3808,317,517
3822,327,518
3836,334,518
3851,318,518
3865,316,518
3880,334,517
3895,324,518
3909,306,518
3923,313,518
3939,334,518
3953,325,518
3968,307,517
3982,323,517
3996,331,518
4012,312,518
4026,343,518
4040,481,518
4055,298,518
4070,278,517
4084,331,517
4099,339,517
4113,332,518
4127,322,518
4143,337,518
4157,346,518
4171,332,518
4186,331,518
4200,345,518
4215,349,518
4230,339,518
4244,345,518
4258,367,518
4274,363,518
4288,356,518
4302,365,518
4317,363,518
4331,324,518
4346,303,518
4361,303,518
4375,304,518
4389,285,518
4405,291,518
4419,306,518
4433,303,518
4448,293,518
4462,302,518
4477,313,518
4492,299,518
4506,296,518
4520,308,518
4536,317,518
4550,299,518
4564,303,518
4579,319,518
4593,311,518
4609,301,518
4623,309,518
4637,324,518
4652,309,518
4666,305,518
4681,320,518
4696,323,518
4710,309,518
4724,308,518
4740,324,518
4754,320,518
4768,307,518
4783,319,518
4797,325,517
4812,312,518
4827,309,518
4841,318,518
4855,322,518
4871,300,518
4885,304,518
4899,325,518
4914,319,518
4928,302,518
4943,308,518
4958,318,518
4972,308,518
4986,407,518
5002,408,518
5016,260,518
5030,298,518
5045,305,518
5059,320,517
5074,319,517
5089,306,518
5103,313,518
5117,324,518
5132,315,518
5147,305,518
5161,320,518
5176,328,518
5190,317,517
5206,319,518
5220,340,518
5234,342,518
5249,331,517
5263,336,518
5278,330,517
5293,296,517
5307,265,517
5321,271,518
5337,276,518
5351,258,518
5365,259,518
5380,274,518
5394,276,517
5409,261,518
5424,265,517
5438,277,518
5452,268,518
5468,258,517
5482,270,517
5496,276,518
5511,261,517
5525,259,517
5540,271,518
5555,274,518
5569,260,517
5583,263,518
5598,275,518
5613,269,518
5627,260,518
5642,268,518
5656,280,518
5671,264,518
5686,263,518
5700,276,518
5714,281,518
5729,268,517
5744,272,518
5758,288,518
5773,281,517
5787,266,518
5803,274,518
5817,288,518
5831,287,518
5846,277,518
5860,289,518
5875,294,518
5890,280,517
5904,287,518
5918,400,518
5934,412,518
5948,221,518
5962,288,518
5977,306,517
5991,298,518
6006,297,518
6021,314,518
6035,319,518
6049,301,518
6064,301,517
6079,315,518
6093,312,518
6108,300,518
6122,315,518
6137,334,518
6152,337,518
6166,340,518
6180,364,518
6195,364,518
6210,328,517
6224,302,518
6239,301,518
6253,286,518
6268,267,517
6283,270,517
6297,278,518
6311,265,518
6326,250,518
6341,264,518
6355,272,518
6370,261,517
6384,268,517
6400,287,518
6414,290,518
6428,279,518
6443,288,518
6457,298,517
6472,292,518
6487,285,517
6501,302,517
6515,318,518
6530,311,518
6545,322,518
6559,343,518
6574,347,518
6588,338,518
6603,351,518
6618,368,518
6632,367,518
6646,363,518
6661,385,517
6676,385,518
6690,374,517
6705,382,518
6719,416,518
6734,419,518
6749,408,518
6763,414,518
6777,424,518
6792,404,518
6807,411,518
6821,548,518
6836,368,518
6850,333,518
6865,367,518
6880,372,518
6894,372,518
6908,360,518
6923,364,518
6938,375,518
6952,367,518
6967,354,518
6981,362,518
6995,371,518
7011,357,518
7025,354,518
7040,377,518
7054,388,518
7069,377,517
7084,383,518
7098,377,518
7112,345,518
7127,310,518
7142,307,518
7156,308,518
7171,298,518
7185,300,518
7200,317,518
7215,322,518
7229,315,518
7243,317,518
7258,322,518
7273,313,518
7287,302,518
7302,312,517
7316,320,518
7331,308,518
7346,305,517
7360,322,518
7374,325,518
7389,309,518
7404,315,518
7418,326,518
7433,321,518
7447,311,518
7461,321,518
7477,332,517
7491,322,518
7505,309,517
7520,320,518
7535,325,518
7549,321,518
7564,319,517
7578,329,518
7592,322,518
7608,310,518
7622,313,518
7636,357,518
7651,475,518
7666,276,518
7681,285,518
7695,322,518
7709,303,518
7724,302,518
7739,319,518
7753,314,518
7768,299,517
7782,300,518
7797,308,518
7812,293,518
7826,280,518
7840,297,518
7855,306,518
7870,303,517
7884,311,518
7899,335,518
7913,336,518
7927,308,518
7943,284,518
7957,276,517
7971,259,517
7986,250,518
8001,270,518
8015,276,518
8030,272,518
8044,273,517
8058,293,518
8074,297,517
8088,280,517
8102,286,518
8117,301,518
8132,298,518
8146,292,518
8161,305,518
8175,313,517
8189,300,518
8205,299,517
8219,315,518
8233,310,518
8248,300,518
8263,306,518
8278,323,518
8292,314,518
8306,307,517
8321,323,518
8336,348,518
8350,341,518
8365,336,518
8379,337,518
8393,333,518
8409,322,518
8423,331,518
8437,345,518
8452,342,518
8467,450,518
8481,451,517
8496,307,518
8510,355,518
8524,368,517
8540,399,518
8554,430,518
8568,457,518
8583,486,518
8598,508,518
8612,516,518
8627,495,518
8641,471,518
8655,462,518
8671,442,518
8685,434,518
8699,445,518
8714,442,518
8729,426,518
8743,411,518
8758,399,518
8772,371,518
8786,346,518
8802,352,518
8816,359,518
8830,346,518
8845,343,518
8859,354,518
8875,356,518
8889,342,518
8903,348,518
8918,358,518
8933,352,518
8947,345,518
8962,350,518
8976,359,518
8990,352,518
9006,348,517
9020,362,518
9034,367,518
9049,354,517
9064,356,518
9078,373,518
9093,370,517
9107,359,518
9121,369,518
9137,379,518
9151,367,518
9165,365,518
9180,378,518
9195,389,518
9209,380,518
9224,373,518
9238,383,518
9252,371,518
9268,352,517
9282,361,518
9296,368,518
9311,357,518
9325,378,518
9340,522,518
9355,351,518
9369,322,518
9383,362,518
9399,373,518
9413,370,518
9427,359,518
9442,370,518
9456,381,518
9472,368,518
9486,358,518
9500,373,518
9515,381,518
9530,371,518
9544,375,518
9559,399,518
9573,399,518
9587,387,518
9603,390,518
9617,387,518
9631,353,518
9646,325,518
9661,328,518
9675,329,518
9690,313,517
9704,310,518
9718,329,518
9734,328,518
9748,311,518
9762,319,518
9777,329,518
9791,318,518
9806,307,518
9821,314,518
9835,324,518
9849,305,518
9865,301,518
9879,320,518
9893,315,518
9908,299,518
9922,306,518
9937,315,518
9952,306,518
9966,295,517
9980,307,518
9996,318,518
10010,319,517
10025,314,518
10041,317,518
10056,315,518
10073,302,518
10088,288,518
10103,292,517
10119,301,518
10135,324,518
10150,450,518
10166,263,518
10181,269,517
10198,317,518
10213,311,518
10228,301,518
10244,307,518
10260,323,518
10275,329,518
10291,319,518
10306,313,518
10321,326,518
10338,344,518
10353,346,518
10369,341,518
10384,346,518
10400,361,518
10416,360,518
10431,325,518
10446,289,518
10463,281,518
10478,289,518
10493,285,518
10509,275,518
10525,272,518
10541,287,518
10556,297,518
10571,287,517
10587,278,517
10603,284,518
10618,296,518
10634,295,518
10649,279,518
10665,278,517
10681,288,518
10696,300,518
10712,294,518
10728,285,518
10743,288,517
10759,299,517
10774,300,517
10789,287,517
10806,283,518
10821,295,518
10836,305,518
10852,299,518
10868,290,518
10884,294,517
10899,309,517
10914,307,518
10931,298,518
10946,298,518
10961,307,518
10977,312,518
10993,303,518
11009,294,518
11024,293,517
11039,307,518
11055,439,518
11071,365,517
11086,240,517
11102,308,518
11117,315,517
11133,311,518
11149,299,518
11164,300,518
11180,312,518
11196,322,518
11211,312,517
11227,307,518
11242,314,518
11258,333,518
11274,337,517
11289,335,518
11304,338,518
11320,347,518
11336,343,518
11352,303,518
11367,271,518
11382,264,517
11399,270,518
11414,271,517
11429,261,518
11445,261,517
11461,275,517
11476,282,518
11492,281,517
11507,269,517
11524,271,517
11539,281,518
11554,284,517
11570,270,517
11585,268,518
11601,275,518
11617,287,518
11632,282,518
11648,271,518
11664,274,517
11679,291,518
11695,293,517
11710,287,518
11726,281,518
11742,290,517
11757,303,518
11772,296,518
11788,287,517
11804,288,517
11820,301,518
11835,307,518
11850,300,518
11867,287,518
11882,294,518
11897,308,517
11913,322,518
11929,305,518
11944,302,517
11960,318,518
11975,326,517
11992,317,517
12007,407,517
12022,443,518
12038,273,518
12053,336,518
12069,335,517
12085,338,517
12100,352,518
12115,366,518
12132,361,518
12147,351,517
12163,360,518
12178,376,518
12194,384,518
12210,379,518
12225,387,518
12240,407,518
12257,424,518
12272,427,518
12288,417,517
12303,399,518
12318,392,518
12335,381,518
12350,366,518
12365,363,517
12381,378,518
12397,389,518
12412,384,518
12428,380,518
12443,381,518
12460,394,518
12475,399,518
12490,385,518
12506,381,518
12522,390,518
12537,400,518
12553,399,518
12568,385,518
12583,386,518
12600,398,518
12615,402,518
12631,388,518
12646,379,518
12662,385,518
12678,397,518
12693,394,518
12708,379,518
12725,379,518
12740,390,518
12755,395,518
12771,387,518
12786,379,518
12803,386,518
12818,392,518
12833,388,518
12849,375,518
12865,383,518
12880,389,518
12896,392,518
12911,384,518
12928,371,518
12943,380,518
12958,526,518
12974,394,517
12990,328,518
13005,370,518
13021,378,518
13036,391,518
13051,385,518
13068,372,518
13083,378,518
13099,386,518
13114,384,518
13130,373,518
13146,370,518
13161,381,518
13176,396,518
13193,394,518
13208,383,518
13223,383,518
13239,382,518
13255,359,518
13271,325,518
13286,306,517
13301,311,518
13317,322,518
13333,319,517
13348,303,518
13364,302,517
13379,313,517
13395,317,517
13411,302,518
13426,290,518
13442,294,518
13458,304,518
13473,300,517
13489,288,517
13504,287,518
13520,300,518
13536,305,517
13551,294,518
13566,283,517
13582,290,517
13598,300,517
13614,299,517
13629,286,518
13644,287,517
13661,293,517
13676,304,518
13691,293,518
13707,284,517
13723,287,518
13739,298,518
13754,294,518
13769,276,518
13785,276,518
13801,293,518
13816,296,518
13832,284,518
13847,272,518
13863,278,518
13879,326,518
13894,464,518
13910,217,518
13926,250,518
13941,291,518
13957,302,518
13972,301,517
13988,295,518
14004,299,518
14019,313,518
14034,318,518
14050,312,518
14066,309,518
14082,321,518
14097,336,518
14112,335,518
14129,350,518
14144,360,518
14159,377,518
14175,370,518
14191,316,518
14206,268,518
14222,259,518
14237,264,518
14254,268,518
14269,273,517
14284,291,517
14300,327,518
14315,329,518
14331,316,518
14347,297,518
14362,301,517
14377,316,518
14394,309,518
14409,297,518
14425,301,518
14440,326,518
14456,330,518
14472,312,518
14487,291,518
14502,294,517
14519,305,518
14534,298,518
14550,274,518
14565,273,517
14580,285,518
14597,295,518
14612,282,518
14627,265,518
14643,267,518
14659,281,518
14674,279,518
14690,263,518
14705,266,518
14722,269,518
14737,279,518
14752,277,518
14768,272,517
14783,270,518
14799,285,518
14815,284,518
14830,266,518
14845,284,518
14862,444,518
14877,281,518
14893,263,518
14908,290,518
14924,291,518
14940,311,518
14955,319,518
14970,303,517
14987,299,517
15002,310,518
15017,328,518
15033,330,518
15048,317,518
15065,333,517
15080,363,518
15095,380,518
15111,376,518
15127,364,518
15142,353,518
15158,340,518
15173,318,517
15190,291,517
15205,297,517
15220,318,518
15236,332,518
15252,318,518
15267,308,518
15283,313,518
15298,335,518
15313,336,518
15330,324,518
15345,322,518
15361,341,518
15376,353,518
15392,346,518
15408,336,518
15423,340,518
15438,353,518
15455,353,518
15470,339,518
15485,339,518
15501,347,518
15517,362,518
15533,361,518
15548,353,518
15563,361,518
15579,379,518
15595,379,518
15610,363,518
15626,357,518
15641,367,518
15657,378,518
15673,381,518
15688,361,518
